#EXPORTTYPE:DATA ALL
#FILE:60CP60012CoPU10GPM-1C.ngb-ss4
#FORMAT:NETZSCH5
#FTYPE:ANSI
#IDENTITY:60CP60012CoPU10GPM-1C
#DECIMAL:POINT
#SEPARATOR:SEMICOLON
#MTYPE:DTA
#INSTRUMENT:NETZSCH STA 2500
#PROJECT:HÉCTOR ROMERO
#DATE/TIME:12.02.2020 11:51
#CORR. FILE:
#TEMPCAL:cal prueba.ngb-ts4
#SENSITIVITY:prueba cal sensibilidad.ngb-es4
#LABORATORY:ESIQIE
#OPERATOR:wendynoemi
#REMARK:
#SAMPLE:60CP60012CoPU10GPM-1C
#SAMPLE MASS /mg:4.998
#MATERIAL:ALUMINA
#REFERENCE:Crisol+Alumina
#REFERENCE MASS /mg:5.189
#TYPE OF CRUCIBLE:Al2O3 pan for STA2500
#SAMPLE CRUCIBLE MASS /mg:38.400
#REFERENCE CRUCIBLE MASS /mg:37.662
#TG RANGE /mg:500
#TAU-R:---
#CORR. CODE:000
#EXO:-1
#RANGE:20°C....700°C/-10.0....10.0K/min
#SEGMENT:S1-4/4
#SEG. 1:20°C/10.0(K/min)/150°C
#SEG. 2:150°C/00:30/150°C
#SEG. 3:150°C/10.0(K/min)/30°C
#SEG. 4:30°C/10.0(K/min)/700°C

##Temp./°C;Time/min;DTA/(mW/mg);Mass/%;Gas Flow(purge1)/(ml/min);Gas Flow(purge2)/(ml/min);Gas Flow(protective)/(ml/min);DTG/(%/min);Sensit./(uV/mW);Segment
 23.87500;  0.00000; 5.91569;100.00000; 0.000000e+000;      75.00000;75.00000;      -0.58618;0.92539;1
 23.88100;  0.25000; 5.94088; 99.81681; 0.000000e+000;      75.00000;75.00000;      -0.38931;0.92539;1
 24.49600;  0.50000; 6.01043; 99.82873; 0.000000e+000;      75.00000;75.00000;      -0.65288;0.92609;1
 25.67800;  0.75000; 6.07159; 99.70924; 0.000000e+000;      75.00000;75.00000;       0.14392;0.92742;1
 27.44500;  1.00000; 6.08363; 99.66226; 0.000000e+000;      75.00000;75.00000;-3.191241e-002;0.92940;1
 29.58700;  1.25000; 6.07889; 99.65802; 0.000000e+000;      75.00000;75.00000;      -0.53325;0.93178;1
 32.01100;  1.50000; 6.07017; 99.62545; 0.000000e+000;      75.00000;75.00000;       0.37344;0.93445;1
 34.61000;  1.75000; 6.06565; 99.69492; 0.000000e+000;      75.00000;75.00000;       0.83749;0.93729;1
 37.33400;  2.00000; 6.06016; 99.72677; 0.000000e+000;      75.00000;75.00000;       0.45403;0.94023;1
 40.10900;  2.25000; 6.06945; 99.78167; 0.000000e+000;      75.00000;75.00000;       0.23098;0.94319;1
 42.87500;  2.50000; 6.08138; 99.78103; 0.000000e+000;      75.00000;75.00000;       0.15527;0.94611;1
 45.62000;  2.75000; 6.10069; 99.87779; 0.000000e+000;      75.00000;75.00000;       0.23626;0.94897;1
 48.33900;  3.00000; 6.12139; 99.77455; 0.000000e+000;      75.00000;75.00000;       0.20211;0.95177;1
 51.01800;  3.25000; 6.14373; 99.84290; 0.000000e+000;      75.00000;75.00000;      -0.46842;0.95450;1
 53.66500;  3.50000; 6.16763; 99.87811; 0.000000e+000;      75.00000;75.00000;       0.69585;0.95716;1
 56.24100;  3.75000; 6.19367; 99.96238; 0.000000e+000;      75.00000;75.00000;       0.18946;0.95971;1
 58.84000;  4.00000; 6.21692; 99.95710; 0.000000e+000;      75.00000;75.00000;      -0.13641;0.96226;1
 61.42800;  4.25000; 6.24128; 99.99536; 0.000000e+000;      75.00000;75.00000;      -0.68659;0.96477;1
 63.96400;  4.50000; 6.26210;100.02369; 0.000000e+000;      75.00000;75.00000;      -1.04668;0.96719;1
 66.48200;  4.75000; 6.28423;100.11228; 0.000000e+000;      75.00000;75.00000;      -0.56535;0.96957;1
 69.00100;  5.00000; 6.30535;100.14894; 0.000000e+000;      75.00000;75.00000;      -0.25220;0.97191;1
 71.33600;  5.25000; 6.33017;100.15342; 0.000000e+000;      75.00000;75.00000;       0.50826;0.97406;1
 72.51300;  5.50000; 6.38239;100.23105; 0.000000e+000;      75.00000;75.00000;      -0.14508;0.97513;1
 77.99600;  5.75000; 6.29239;100.28876; 0.000000e+000;      75.00000;75.00000;       0.54046;0.98003;1
 81.32900;  6.00000; 6.31155;100.27931; 0.000000e+000;      75.00000;75.00000;      -1.39893;0.98293;1
 82.83600;  6.25000; 6.39988;100.28075; 0.000000e+000;      75.00000;75.00000;      -0.17206;0.98422;1
 84.42800;  6.50000; 6.46017;100.37671; 0.000000e+000;      75.00000;75.00000;       0.18367;0.98558;1
 86.35800;  6.75000; 6.48928;100.38367; 0.000000e+000;      75.00000;75.00000;      -0.38744;0.98720;1
 88.55400;  7.00000; 6.50217;100.40232; 0.000000e+000;      75.00000;75.00000;      -0.79534;0.98902;1
 90.94000;  7.25000; 6.51108;100.44802; 0.000000e+000;      75.00000;75.00000;       0.59836;0.99098;1
 93.45500;  7.50000; 6.51747;100.44714; 0.000000e+000;      75.00000;75.00000;      -0.28170;0.99300;1
 96.03600;  7.75000; 6.52787;100.45010; 0.000000e+000;      75.00000;75.00000;       0.28186;0.99504;1
 98.66100;  8.00000; 6.53578;100.44658; 0.000000e+000;      75.00000;75.00000;      -0.25785;0.99709;1
101.29600;  8.25000; 6.54844;100.50588; 0.000000e+000;      75.00000;75.00000;      -0.11331;0.99910;1
103.90100;  8.50000; 6.56495;100.57119; 0.000000e+000;      75.00000;75.00000;      -0.12478;1.00105;1
106.48000;  8.75000; 6.58527;100.55310; 0.000000e+000;      75.00000;75.00000;       0.20789;1.00295;1
109.06500;  9.00000; 6.60481;100.58519; 0.000000e+000;      75.00000;75.00000;       0.10297;1.00481;1
111.61900;  9.25000; 6.62436;100.63962; 0.000000e+000;      75.00000;75.00000;      -0.57461;1.00661;1
114.15100;  9.50000; 6.64403;100.63121; 0.000000e+000;      75.00000;75.00000;      -0.67137;1.00837;1
116.66200;  9.75000; 6.66396;100.60352; 0.000000e+000;      75.00000;75.00000;       0.12475;1.01007;1
119.17500; 10.00000; 6.67998;100.65626; 0.000000e+000;      75.00000;75.00000;       0.52321;1.01174;1
121.68600; 10.25000; 6.69724;100.67651; 0.000000e+000;      75.00000;75.00000;      -0.15708;1.01337;1
124.19000; 10.50000; 6.71592;100.70964; 0.000000e+000;      75.00000;75.00000;      -0.92313;1.01496;1
126.69700; 10.75000; 6.73296;100.67915; 0.000000e+000;      75.00000;75.00000;      -0.63243;1.01652;1
129.20000; 11.00000; 6.75201;100.73149; 0.000000e+000;      75.00000;75.00000;-4.628159e-002;1.01803;1
131.71600; 11.25000; 6.77104;100.73790; 0.000000e+000;      75.00000;75.00000;      -0.57462;1.01952;1
134.23900; 11.50000; 6.78770;100.83185; 0.000000e+000;      75.00000;75.00000;-4.512837e-002;1.02098;1
136.72400; 11.75000; 6.80245;100.74542; 0.000000e+000;      75.00000;75.00000;      -0.33073;1.02238;1
139.24300; 12.00000; 6.82056;100.87027; 0.000000e+000;      75.00000;75.00000;      -0.40730;1.02376;1
141.76601; 12.25000; 6.83529;100.82033; 0.000000e+000;      75.00000;75.00000;      -0.19578;1.02511;1
144.26601; 12.50000; 6.85075;100.82273; 0.000000e+000;      75.00000;75.00000;       0.40046;1.02640;1
146.78000; 12.75000; 6.86638;100.92357; 0.000000e+000;      75.00000;75.00000;-5.909662e-003;1.02767;1
149.28968; 13.00000; 6.88019;100.87528; 0.000000e+000;      75.00000;75.00000;      -0.81471;1.02889;2
151.42640; 13.25000; 6.91889;100.86515; 0.000000e+000;      75.00000;75.00000; 7.291151e-002;1.02991;2
152.27325; 13.50000; 7.00810;100.90755; 0.000000e+000;      75.00000;75.00000; 2.698110e-002;1.03030;2
152.54277; 13.75000; 7.08651;100.95520; 0.000000e+000;      75.00000;75.00000; 7.725977e-002;1.03043;2
152.43145; 14.00000; 7.14661;100.94008; 0.000000e+000;      75.00000;75.00000;-7.944780e-003;1.03038;2
152.11448; 14.25000; 7.18248;100.90728; 0.000000e+000;      75.00000;75.00000;       0.23776;1.03023;2
151.73931; 14.50000; 7.20165;100.94573; 0.000000e+000;      75.00000;75.00000; 1.611248e-002;1.03005;2
151.37117; 14.75000; 7.20580;100.97584; 0.000000e+000;      75.00000;75.00000; 5.950732e-002;1.02988;2
151.01155; 15.00000; 7.20027;101.06316; 0.000000e+000;      75.00000;75.00000; 7.609693e-002;1.02971;2
150.70160; 15.25000; 7.18607;101.03036; 0.000000e+000;      75.00000;75.00000;       0.16455;1.02957;2
150.47325; 15.50000; 7.16939;101.10733; 0.000000e+000;      75.00000;75.00000;       0.21212;1.02946;2
150.30791; 15.75000; 7.15092;101.09645; 0.000000e+000;      75.00000;75.00000; 2.792707e-002;1.02938;2
150.18905; 16.00000; 7.13460;101.10383; 0.000000e+000;      75.00000;75.00000;-1.269252e-002;1.02932;2
150.09889; 16.25000; 7.12001;101.13240; 0.000000e+000;      75.00000;75.00000;       0.12154;1.02928;2
150.06360; 16.50000; 7.10284;101.17458; 0.000000e+000;      75.00000;75.00000;-9.514179e-003;1.02926;2
150.03180; 16.75000; 7.09016;101.12529; 0.000000e+000;      75.00000;75.00000;       0.16809;1.02925;2
150.02211; 17.00000; 7.07898;101.19707; 0.000000e+000;      75.00000;75.00000;       0.20304;1.02924;2
150.01543; 17.25000; 7.06965;101.23671; 0.000000e+000;      75.00000;75.00000;-4.463825e-002;1.02924;2
150.01166; 17.50000; 7.06331;101.27746; 0.000000e+000;      75.00000;75.00000;       0.18849;1.02924;2
150.02117; 17.75000; 7.05574;101.29173; 0.000000e+000;      75.00000;75.00000; 2.375566e-002;1.02924;2
150.02945; 18.00000; 7.04807;101.33891; 0.000000e+000;      75.00000;75.00000;       0.21539;1.02925;2
150.04056; 18.25000; 7.04383;101.26370; 0.000000e+000;      75.00000;75.00000;       0.11457;1.02925;2
150.03892; 18.50000; 7.03891;101.35064; 0.000000e+000;      75.00000;75.00000; 6.550532e-002;1.02925;2
150.03268; 18.75000; 7.03345;101.38279; 0.000000e+000;      75.00000;75.00000;       0.13409;1.02925;2
150.06656; 19.00000; 7.02788;101.42557; 0.000000e+000;      75.00000;75.00000;-7.210880e-003;1.02927;2
150.06830; 19.25000; 7.02523;101.43555; 0.000000e+000;      75.00000;75.00000;       0.14528;1.02927;2
150.04910; 19.50000; 7.02177;101.40098; 0.000000e+000;      75.00000;75.00000; 7.243665e-002;1.02926;2
150.06117; 19.75000; 7.01799;101.45998; 0.000000e+000;      75.00000;75.00000;       0.12909;1.02926;2
150.06313; 20.00000; 7.01681;101.45653; 0.000000e+000;      75.00000;75.00000;-9.660208e-002;1.02926;2
150.04755; 20.25000; 7.01664;101.51493; 0.000000e+000;      75.00000;75.00000;       0.22013;1.02926;2
150.05632; 20.50000; 7.01334;101.49278; 0.000000e+000;      75.00000;75.00000; 3.935952e-002;1.02926;2
150.05008; 20.75000; 7.01282;101.46713; 0.000000e+000;      75.00000;75.00000;       0.22566;1.02926;2
150.04949; 21.00000; 7.00896;101.57694; 0.000000e+000;      75.00000;75.00000;-7.240547e-002;1.02926;2
150.05034; 21.25000; 7.00733;101.52191; 0.000000e+000;      75.00000;75.00000; 7.501037e-003;1.02926;2
150.05272; 21.50000; 7.00366;101.63573; 0.000000e+000;      75.00000;75.00000;       0.19119;1.02926;2
150.03776; 21.75000; 7.00174;101.57572; 0.000000e+000;      75.00000;75.00000; 6.431325e-002;1.02925;2
150.02650; 22.00000; 6.99955;101.65261; 0.000000e+000;      75.00000;75.00000; 9.365640e-002;1.02925;2
150.03175; 22.25000; 6.99767;101.66785; 0.000000e+000;      75.00000;75.00000;-6.547036e-003;1.02925;2
149.99708; 22.50000; 6.99966;101.67285; 0.000000e+000;      75.00000;75.00000;       0.18950;1.02923;2
150.06145; 22.75000; 6.99543;101.70239; 0.000000e+000;      75.00000;75.00000; 4.737272e-002;1.02926;2
150.05163; 23.00000; 6.99518;101.79285; 0.000000e+000;      75.00000;75.00000;       0.11036;1.02926;2
150.05772; 23.25000; 6.99475;101.76236; 0.000000e+000;      75.00000;75.00000; 7.567045e-002;1.02926;2
150.04411; 23.50000; 6.99381;101.76322; 0.000000e+000;      75.00000;75.00000;       0.25862;1.02925;2
150.05087; 23.75000; 6.99377;101.85783; 0.000000e+000;      75.00000;75.00000;       0.12950;1.02926;2
150.03822; 24.00000; 6.99258;101.84053; 0.000000e+000;      75.00000;75.00000; 2.256848e-002;1.02925;2
150.03600; 24.25000; 6.99225;101.85668; 0.000000e+000;      75.00000;75.00000; 9.319765e-002;1.02925;2
150.02797; 24.50000; 6.99006;101.90412; 0.000000e+000;      75.00000;75.00000; 4.924641e-002;1.02925;2
150.03218; 24.75000; 6.99044;101.90491; 0.000000e+000;      75.00000;75.00000;       0.16178;1.02925;2
150.03090; 25.00000; 6.98749;101.91517; 0.000000e+000;      75.00000;75.00000;       0.11168;1.02925;2
150.03267; 25.25000; 6.98872;101.97880; 0.000000e+000;      75.00000;75.00000;       0.18322;1.02925;2
150.03237; 25.50000; 6.98695;101.98426; 0.000000e+000;      75.00000;75.00000;-5.229821e-002;1.02925;2
150.04032; 25.75000; 6.98630;102.02389; 0.000000e+000;      75.00000;75.00000;       0.19432;1.02925;2
150.04333; 26.00000; 6.98634;102.10306; 0.000000e+000;      75.00000;75.00000; 8.993523e-002;1.02925;2
150.04984; 26.25000; 6.98569;102.06046; 0.000000e+000;      75.00000;75.00000;-6.052913e-003;1.02926;2
150.03951; 26.50000; 6.98583;102.11985; 0.000000e+000;      75.00000;75.00000;       0.28403;1.02925;2
150.02950; 26.75000; 6.98460;102.14414; 0.000000e+000;      75.00000;75.00000;-1.427343e-002;1.02925;2
150.02012; 27.00000; 6.98450;102.15585; 0.000000e+000;      75.00000;75.00000; 2.718879e-002;1.02924;2
150.02102; 27.25000; 6.98261;102.15193; 0.000000e+000;      75.00000;75.00000;       0.20174;1.02924;2
150.02627; 27.50000; 6.98202;102.13724; 0.000000e+000;      75.00000;75.00000; 4.185107e-002;1.02925;2
150.03670; 27.75000; 6.98321;102.14276; 0.000000e+000;      75.00000;75.00000;       0.12021;1.02925;2
150.01403; 28.00000; 6.98164;102.20433; 0.000000e+000;      75.00000;75.00000;       0.20179;1.02924;2
150.02295; 28.25000; 6.98240;102.26241; 0.000000e+000;      75.00000;75.00000;       0.22021;1.02924;2
150.01950; 28.50000; 6.98197;102.29115; 0.000000e+000;      75.00000;75.00000;-5.808594e-002;1.02924;2
150.02197; 28.75000; 6.98278;102.32446; 0.000000e+000;      75.00000;75.00000; 7.527408e-002;1.02924;2
150.01441; 29.00000; 6.98105;102.33361; 0.000000e+000;      75.00000;75.00000; 7.964017e-002;1.02924;2
150.01198; 29.25000; 6.98092;102.37016; 0.000000e+000;      75.00000;75.00000; 9.490933e-003;1.02924;2
150.01089; 29.50000; 6.98064;102.39453; 0.000000e+000;      75.00000;75.00000; 8.716464e-002;1.02924;2
150.01144; 29.75000; 6.98088;102.39064; 0.000000e+000;      75.00000;75.00000;       0.15866;1.02924;2
150.01896; 30.00000; 6.97983;102.39821; 0.000000e+000;      75.00000;75.00000; 2.949883e-002;1.02924;2
150.02993; 30.25000; 6.97968;102.44116; 0.000000e+000;      75.00000;75.00000; 9.049062e-002;1.02925;2
150.01514; 30.50000; 6.98081;102.45024; 0.000000e+000;      75.00000;75.00000; 4.233036e-002;1.02924;2
150.02414; 30.75000; 6.98090;102.55419; 0.000000e+000;      75.00000;75.00000;       0.20209;1.02925;2
150.02199; 31.00000; 6.98014;102.44638; 0.000000e+000;      75.00000;75.00000;-5.526969e-002;1.02924;2
150.02054; 31.25000; 6.97969;102.57226; 0.000000e+000;      75.00000;75.00000;       0.14509;1.02924;2
150.01791; 31.50000; 6.97895;102.57553; 0.000000e+000;      75.00000;75.00000;       0.22872;1.02924;2
150.00794; 31.75000; 6.98050;102.58616; 0.000000e+000;      75.00000;75.00000;       0.13705;1.02924;2
150.02194; 32.00000; 6.98018;102.62330; 0.000000e+000;      75.00000;75.00000;      -0.15006;1.02924;2
150.02101; 32.25000; 6.98000;102.59777; 0.000000e+000;      75.00000;75.00000;       0.12620;1.02924;2
150.00805; 32.50000; 6.97943;102.61700; 0.000000e+000;      75.00000;75.00000; 2.590429e-002;1.02924;2
150.03164; 32.75000; 6.97886;102.62424; 0.000000e+000;      75.00000;75.00000;       0.19838;1.02925;2
150.03148; 33.00000; 6.97910;102.65718; 0.000000e+000;      75.00000;75.00000; 5.200438e-002;1.02925;2
150.02918; 33.25000; 6.97952;102.72482; 0.000000e+000;      75.00000;75.00000;       0.12326;1.02925;2
150.02396; 33.50000; 6.97895;102.68059; 0.000000e+000;      75.00000;75.00000;       0.14717;1.02925;2
150.01385; 33.75000; 6.97895;102.71983; 0.000000e+000;      75.00000;75.00000; 8.442398e-002;1.02924;2
150.01417; 34.00000; 6.97751;102.82899; 0.000000e+000;      75.00000;75.00000;       0.21759;1.02924;2
150.01683; 34.25000; 6.97827;102.88605; 0.000000e+000;      75.00000;75.00000;       0.12211;1.02924;2
150.01761; 34.50000; 6.97929;102.86294; 0.000000e+000;      75.00000;75.00000;-1.574775e-003;1.02924;2
150.01983; 34.75000; 6.97921;102.83341; 0.000000e+000;      75.00000;75.00000;       0.19464;1.02924;2
150.02067; 35.00000; 6.97881;102.86641; 0.000000e+000;      75.00000;75.00000; 2.742965e-002;1.02924;2
150.01151; 35.25000; 6.97858;102.92400; 0.000000e+000;      75.00000;75.00000; 4.097464e-002;1.02924;2
150.01810; 35.50000; 6.97927;102.94310; 0.000000e+000;      75.00000;75.00000;       0.14507;1.02924;2
150.02289; 35.75000; 6.97772;103.01173; 0.000000e+000;      75.00000;75.00000; 9.307776e-002;1.02924;2
150.01454; 36.00000; 6.97781;103.00980; 0.000000e+000;      75.00000;75.00000;       0.10932;1.02924;2
150.00611; 36.25000; 6.97796;103.06410; 0.000000e+000;      75.00000;75.00000;-3.982949e-002;1.02924;2
150.00239; 36.50000; 6.97795;103.02505; 0.000000e+000;      75.00000;75.00000;       0.11257;1.02923;2
150.00747; 36.75000; 6.97870;103.04369; 0.000000e+000;      75.00000;75.00000;-9.268783e-002;1.02924;2
150.01270; 37.00000; 6.97797;103.03980; 0.000000e+000;      75.00000;75.00000;       0.34887;1.02924;2
149.98977; 37.25000; 6.97905;103.13811; 0.000000e+000;      75.00000;75.00000;       0.11294;1.02923;2
150.00072; 37.50000; 6.97932;103.12522; 0.000000e+000;      75.00000;75.00000;-7.540718e-002;1.02923;2
149.99558; 37.75000; 6.97844;103.14005; 0.000000e+000;      75.00000;75.00000;       0.23263;1.02923;2
149.99790; 38.00000; 6.97940;103.13648; 0.000000e+000;      75.00000;75.00000;-5.474577e-002;1.02923;2
149.99201; 38.25000; 6.97992;103.20732; 0.000000e+000;      75.00000;75.00000; 4.372644e-002;1.02923;2
149.99701; 38.50000; 6.98008;103.26400; 0.000000e+000;      75.00000;75.00000;       0.15099;1.02923;2
150.00594; 38.75000; 6.97914;103.22621; 0.000000e+000;      75.00000;75.00000;       0.14786;1.02924;2
149.99809; 39.00000; 6.97753;103.22236; 0.000000e+000;      75.00000;75.00000;       0.13897;1.02923;2
149.98763; 39.25000; 6.97942;103.32505; 0.000000e+000;      75.00000;75.00000; 7.385459e-002;1.02923;2
150.01438; 39.50000; 6.97886;103.36037; 0.000000e+000;      75.00000;75.00000;       0.19907;1.02924;2
150.00400; 39.75000; 6.97859;103.44672; 0.000000e+000;      75.00000;75.00000;       0.25715;1.02924;2
150.00888; 40.00000; 6.97894;103.40613; 0.000000e+000;      75.00000;75.00000; 1.767493e-002;1.02924;2
150.02199; 40.25000; 6.97777;103.43529; 0.000000e+000;      75.00000;75.00000;       0.21831;1.02924;2
150.01695; 40.50000; 6.97700;103.46813; 0.000000e+000;      75.00000;75.00000; 3.091515e-002;1.02924;2
150.00513; 40.75000; 6.97724;103.47212; 0.000000e+000;      75.00000;75.00000;       0.16607;1.02924;2
150.00621; 41.00000; 6.97903;103.53295; 0.000000e+000;      75.00000;75.00000; 6.222572e-002;1.02924;2
150.00063; 41.25000; 6.97816;103.50985; 0.000000e+000;      75.00000;75.00000; 7.166824e-002;1.02923;2
149.99278; 41.50000; 6.98006;103.59294; 0.000000e+000;      75.00000;75.00000; 4.909871e-004;1.02923;2
150.00738; 41.75000; 6.97840;103.57361; 0.000000e+000;      75.00000;75.00000;       0.17803;1.02924;2
149.99515; 42.00000; 6.97860;103.63387; 0.000000e+000;      75.00000;75.00000; 1.423786e-002;1.02923;2
150.00313; 42.25000; 6.97895;103.63247; 0.000000e+000;      75.00000;75.00000;       0.16228;1.02924;2
150.02797; 42.50000; 6.97880;103.66285; 0.000000e+000;      75.00000;75.00000;-3.636080e-003;1.02925;2
150.02031; 42.75000; 6.97944;103.68653; 0.000000e+000;      75.00000;75.00000;-7.908638e-002;1.02924;2
150.02300; 43.00000; 6.97966;103.63575; 0.000000e+000;      75.00000;75.00000;      -0.18574;1.02924;3
149.68593; 43.25000; 6.99526;103.73881; 0.000000e+000;      75.00000;75.00000;      -1.40402;1.02908;3
148.16615; 43.50000; 7.05978;103.69304; 0.000000e+000;      75.00000;75.00000; 8.733720e-002;1.02835;3
145.93000; 43.75000; 7.12192;103.72176; 0.000000e+000;      75.00000;75.00000;       0.54684;1.02724;3
143.38780; 44.00000; 7.16025;103.70975; 0.000000e+000;      75.00000;75.00000;      -1.07980;1.02595;3
140.60990; 44.25000; 7.17805;103.72547; 0.000000e+000;      75.00000;75.00000;      -0.29785;1.02449;3
137.76742; 44.50000; 7.17142;103.72616; 0.000000e+000;      75.00000;75.00000;       1.09874;1.02296;3
134.91301; 44.75000; 7.15516;103.83589; 0.000000e+000;      75.00000;75.00000;       0.16494;1.02136;3
132.09770; 45.00000; 7.12783;103.81883; 0.000000e+000;      75.00000;75.00000;       0.17456;1.01975;3
129.33541; 45.25000; 7.09619;103.84110; 0.000000e+000;      75.00000;75.00000;       1.36722;1.01812;3
126.59389; 45.50000; 7.06122;103.83832; 0.000000e+000;      75.00000;75.00000;      -0.39905;1.01645;3
123.94322; 45.75000; 7.02496;103.87874; 0.000000e+000;      75.00000;75.00000;       0.72021;1.01480;3
121.36298; 46.00000; 6.98545;103.87046; 0.000000e+000;      75.00000;75.00000;      -0.42690;1.01316;3
118.86462; 46.25000; 6.94959;103.98975; 0.000000e+000;      75.00000;75.00000;       0.21754;1.01153;3
116.44689; 46.50000; 6.91369;103.96148; 0.000000e+000;      75.00000;75.00000;      -0.59704;1.00992;3
114.10666; 46.75000; 6.87692;104.01816; 0.000000e+000;      75.00000;75.00000;       0.58802;1.00834;3
111.86848; 47.00000; 6.84088;104.01097; 0.000000e+000;      75.00000;75.00000;-3.520465e-002;1.00679;3
109.70078; 47.25000; 6.80798;103.95999; 0.000000e+000;      75.00000;75.00000;       1.10736;1.00526;3
107.62845; 47.50000; 6.77653;104.02284; 0.000000e+000;      75.00000;75.00000;      -0.12080;1.00378;3
105.60027; 47.75000; 6.74707;104.12424; 0.000000e+000;      75.00000;75.00000;       0.22516;1.00230;3
103.65614; 48.00000; 6.71703;104.06061; 0.000000e+000;      75.00000;75.00000;       0.28024;1.00087;3
101.76743; 48.25000; 6.69163;104.10733; 0.000000e+000;      75.00000;75.00000;      -0.36260;0.99945;3
 99.92684; 48.50000; 6.66673;104.15983; 0.000000e+000;      75.00000;75.00000;       0.44858;0.99806;3
 98.15436; 48.75000; 6.64383;104.14754; 0.000000e+000;      75.00000;75.00000;      -0.16005;0.99670;3
 96.45580; 49.00000; 6.62386;104.19841; 0.000000e+000;      75.00000;75.00000;      -0.78457;0.99537;3
 94.77581; 49.25000; 6.60258;104.16058; 0.000000e+000;      75.00000;75.00000;      -0.18623;0.99405;3
 93.14600; 49.50000; 6.58325;104.20196;-4.541713e-315;      75.00000;75.00000;      -0.51611;0.99275;3
 91.57931; 49.75000; 6.56500;104.23993; 9.034588e-301;      75.00000;75.00000;      -0.21135;0.99149;3
 90.04639; 50.00000; 6.54911;104.23591;-1.797203e-286;      75.00000;75.00000;      -0.69028;0.99025;3
 88.55080; 50.25000; 6.53197;104.28200; 3.575080e-272;      75.00000;75.00000;-7.415468e-002;0.98902;3
 87.09634; 50.50000; 6.51392;104.23388;-7.111716e-258;      75.00000;75.00000; 2.021644e-002;0.98782;3
 85.68113; 50.75000; 6.49822;104.31126; 1.414696e-243;      75.00000;75.00000;       1.26799;0.98663;3
 84.29936; 51.00000; 6.48452;104.32580;-2.814180e-229;      75.00000;75.00000;       0.56934;0.98547;3
 82.96183; 51.25000; 6.47061;104.36902; 5.598098e-215;      75.00000;75.00000;       0.25250;0.98433;3
 81.65827; 51.50000; 6.45580;104.40901;-1.113600e-200;      75.00000;75.00000;       1.05171;0.98321;3
 80.37327; 51.75000; 6.44485;104.35387; 2.215225e-186;      75.00000;75.00000;       0.50843;0.98210;3
 79.12809; 52.00000; 6.43212;104.36578;-4.406630e-172;      75.00000;75.00000;      -0.63928;0.98102;3
 77.91464; 52.25000; 6.41771;104.37523; 8.765874e-158;      75.00000;75.00000;       0.81946;0.97996;3
 76.73771; 52.50000; 6.40728;104.41828;-1.743749e-143;      75.00000;75.00000; 6.466341e-002;0.97892;3
 75.59161; 52.75000; 6.39613;104.44478; 3.468747e-129;      75.00000;75.00000;      -0.11038;0.97790;3
 74.45607; 53.00000; 6.38545;104.51632;-6.900194e-115;      75.00000;75.00000;       0.73254;0.97688;3
 73.33863; 53.25000; 6.37364;104.48890; 1.372619e-100;      75.00000;75.00000;       0.43139;0.97588;3
 72.26477; 53.50000; 6.36503;104.50958;-2.730478e-086;      75.00000;75.00000;      -0.29926;0.97490;3
 71.21568; 53.75000; 6.35306;104.53197; 5.431595e-072;      75.00000;75.00000;       0.64392;0.97395;3
 70.18825; 54.00000; 6.34287;104.54140;-1.080478e-057;      75.00000;75.00000;-6.042622e-002;0.97301;3
 69.15840; 54.25000; 6.33404;104.51237; 2.149338e-043;      75.00000;75.00000;      -0.31757;0.97206;3
 68.18736; 54.50000; 6.32406;104.55399;-4.275564e-029;      75.00000;75.00000; 4.384319e-002;0.97116;3
 67.21809; 54.75000; 6.31644;104.55938; 8.505153e-015;      75.00000;75.00000;       0.17655;0.97026;3
 66.26385; 55.00000; 6.30807;104.60532;      -0.90926;      75.90926;75.00000;-2.948632e-002;0.96936;3
 65.34046; 55.25000; 6.29011;104.60116;      75.00000; 9.647250e-014;75.00000;       0.21997;0.96849;4
 64.43099; 55.50000; 6.23195;104.67293;      75.00000;-4.849700e-028;75.00000;      -1.95627;0.96763;4
 63.53694; 55.75000; 6.23545;104.73562;      75.00000; 2.437958e-042;75.00000;       0.73413;0.96679;4
 62.68998; 56.00000; 6.24918;104.79729;      75.00000;-1.225568e-056;75.00000;       0.52830;0.96598;4
 61.82858; 56.25000; 6.25688;104.75169;      75.00000; 6.160966e-071;75.00000;       0.66068;0.96515;4
 61.00149; 56.50000; 6.25710;104.81796;      75.00000;-3.097135e-085;75.00000;       0.90904;0.96436;4
 60.20704; 56.75000; 6.25467;104.81456;      75.00000; 1.556938e-099;75.00000;       0.27706;0.96359;4
 59.40087; 57.00000; 6.24863;104.83852;      75.00000;-7.826773e-114;75.00000;       0.98565;0.96281;4
 58.64053; 57.25000; 6.24410;104.86041;      75.00000; 3.934541e-128;75.00000;      -0.26183;0.96207;4
 57.87536; 57.50000; 6.23783;104.84631;      75.00000;-1.977905e-142;75.00000;       1.56024;0.96132;4
 57.12646; 57.75000; 6.23227;104.85940;      75.00000; 9.942982e-157;75.00000;      -0.97195;0.96059;4
 56.42554; 58.00000; 6.22562;104.85561;      75.00000;-4.998365e-171;75.00000; 9.226138e-002;0.95990;4
 55.71209; 58.25000; 6.21757;104.86850;      75.00000; 2.512692e-185;75.00000;       0.73644;0.95919;4
 55.08246; 58.50000; 6.21352;104.89051;      75.00000;-1.263137e-199;75.00000;       1.36035;0.95857;4
 55.92036; 58.75000; 6.19483;104.87035;      75.00000; 6.349827e-214;75.00000;       0.58770;0.95940;4
 58.33408; 59.00000; 6.15167;104.99192;      75.00000;-3.192076e-228;75.00000;       0.62723;0.96177;4
 61.82316; 59.25000; 6.10750;105.02831;      75.00000; 1.604666e-242;75.00000;       0.74413;0.96515;4
 65.82638; 59.50000; 6.07937;104.95856;      75.00000;-8.066699e-257;75.00000;      -0.63934;0.96895;4
 70.00667; 59.75000; 6.07454;105.06661;      75.00000; 4.055152e-271;75.00000;      -0.29878;0.97284;4
 74.12976; 60.00000; 6.08957;105.00560;      75.00000;-2.038536e-285;75.00000;       0.33899;0.97659;4
 78.02052; 60.25000; 6.11731;105.05358;      75.00000; 1.024778e-299;75.00000;       0.73537;0.98005;4
 81.70871; 60.50000; 6.15879;105.10873;      75.00000;-5.151588e-314;75.00000;      -0.23868;0.98326;4
 85.13280; 60.75000; 6.21101;105.06190;      75.00000; 0.000000e+000;75.00000;       0.15214;0.98617;4
 88.27630; 61.00000; 6.26574;105.09476;      75.00000; 0.000000e+000;75.00000;      -0.18712;0.98879;4
 91.26387; 61.25000; 6.31697;105.11821;      75.00000; 0.000000e+000;75.00000; 6.929514e-002;0.99124;4
 94.08365; 61.50000; 6.36454;105.08891;      75.00000; 0.000000e+000;75.00000;       1.53022;0.99350;4
 96.74772; 61.75000; 6.40766;105.17519;      75.00000; 0.000000e+000;75.00000;       0.19773;0.99560;4
 99.33280; 62.00000; 6.44880;105.11475;      75.00000; 0.000000e+000;75.00000;      -1.04411;0.99760;4
101.87145; 62.25000; 6.48335;105.12681;      75.00000; 0.000000e+000;75.00000;       0.65391;0.99953;4
104.34356; 62.50000; 6.51563;105.11412;      75.00000; 0.000000e+000;75.00000;       0.27933;1.00138;4
106.80656; 62.75000; 6.54398;105.21397;      75.00000; 0.000000e+000;75.00000;      -0.18115;1.00318;4
109.25454; 63.00000; 6.57098;105.25529;      75.00000; 0.000000e+000;75.00000;      -0.51018;1.00494;4
111.70900; 63.25000; 6.59439;105.15577;      75.00000; 0.000000e+000;75.00000;       0.36006;1.00668;4
114.15754; 63.50000; 6.61858;105.18542;      75.00000; 0.000000e+000;75.00000;       0.29124;1.00837;4
116.63364; 63.75000; 6.63709;105.17852;      75.00000; 0.000000e+000;75.00000;      -0.59176;1.01005;4
119.10490; 64.00000; 6.65905;105.23164;      75.00000; 0.000000e+000;75.00000;      -0.23414;1.01169;4
121.57840; 64.25000; 6.67623;105.26622;      75.00000; 0.000000e+000;75.00000;       1.03021;1.01330;4
124.06963; 64.50000; 6.69353;105.20863;      75.00000; 0.000000e+000;75.00000;       0.24666;1.01488;4
126.55812; 64.75000; 6.71434;105.30782;      75.00000; 0.000000e+000;75.00000; 2.906140e-002;1.01643;4
129.08086; 65.00000; 6.73309;105.24917;      75.00000; 0.000000e+000;75.00000;       0.38232;1.01796;4
131.60175; 65.25000; 6.75013;105.24604;      75.00000; 0.000000e+000;75.00000;       0.18548;1.01946;4
134.11794; 65.50000; 6.76412;105.32971;      75.00000; 0.000000e+000;75.00000;-3.410299e-002;1.02091;4
136.62731; 65.75000; 6.78227;105.34031;      75.00000; 0.000000e+000;75.00000;      -0.55185;1.02233;4
139.14854; 66.00000; 6.79800;105.30137;      75.00000; 0.000000e+000;75.00000;      -0.30543;1.02371;4
141.67751; 66.25000; 6.81386;105.35650;      75.00000; 0.000000e+000;75.00000;       0.18996;1.02506;4
144.19499; 66.50000; 6.83212;105.33409;      75.00000; 0.000000e+000;75.00000;      -0.23391;1.02637;4
146.70027; 66.75000; 6.84929;105.24541;      75.00000; 0.000000e+000;75.00000;       0.68791;1.02763;4
149.23120; 67.00000; 6.86543;105.29040;      75.00000; 0.000000e+000;75.00000;       0.51221;1.02887;4
151.73187; 67.25000; 6.88239;105.28560;      75.00000; 0.000000e+000;75.00000;       0.90059;1.03005;4
154.23979; 67.50000; 6.90010;105.36313;      75.00000; 0.000000e+000;75.00000;       0.81991;1.03120;4
156.75091; 67.75000; 6.91645;105.37533;      75.00000; 0.000000e+000;75.00000;       0.63526;1.03231;4
159.25210; 68.00000; 6.93066;105.36368;      75.00000; 0.000000e+000;75.00000;-7.130605e-003;1.03339;4
161.74127; 68.25000; 6.94132;105.37628;      75.00000; 0.000000e+000;75.00000;       0.45769;1.03442;4
164.26168; 68.50000; 6.95625;105.37345;      75.00000; 0.000000e+000;75.00000;      -0.78141;1.03542;4
166.74918; 68.75000; 6.96940;105.44403;      75.00000; 0.000000e+000;75.00000;      -0.47427;1.03637;4
169.24780; 69.00000; 6.98248;105.38146;      75.00000; 0.000000e+000;75.00000;       1.46451;1.03729;4
171.76424; 69.25000; 6.99590;105.44050;      75.00000; 0.000000e+000;75.00000;       0.61287;1.03817;4
174.24454; 69.50000; 7.00680;105.44801;      75.00000; 0.000000e+000;75.00000; 6.376241e-002;1.03901;4
176.74886; 69.75000; 7.01933;105.50712;      75.00000; 0.000000e+000;75.00000;      -0.32299;1.03981;4
179.28343; 70.00000; 7.02901;105.46615;      75.00000; 0.000000e+000;75.00000;       0.17012;1.04059;4
181.78012; 70.25000; 7.03791;105.44794;      75.00000; 0.000000e+000;75.00000;       1.46174;1.04131;4
184.28677; 70.50000; 7.04848;105.48941;      75.00000; 0.000000e+000;75.00000;       0.87651;1.04200;4
186.78906; 70.75000; 7.05678;105.45021;      75.00000; 0.000000e+000;75.00000;       0.29307;1.04265;4
189.29748; 71.00000; 7.06253;105.53671;      75.00000; 0.000000e+000;75.00000;      -0.16541;1.04326;4
191.82347; 71.25000; 7.06828;105.46910;      75.00000; 0.000000e+000;75.00000;       0.88158;1.04383;4
194.31653; 71.50000; 7.06973;105.42628;      75.00000; 0.000000e+000;75.00000;      -0.45787;1.04436;4
196.81500; 71.75000; 7.06931;105.51094;      75.00000; 0.000000e+000;75.00000; 2.430593e-002;1.04485;4
199.32118; 72.00000; 7.06701;105.49889;      75.00000; 0.000000e+000;75.00000; 7.997201e-002;1.04530;4
201.80839; 72.25000; 7.06005;105.43590;      75.00000; 0.000000e+000;75.00000;      -0.69754;1.04571;4
204.32925; 72.50000; 7.05389;105.50469;      75.00000; 0.000000e+000;75.00000;       0.19601;1.04608;4
206.82872; 72.75000; 7.04637;105.45440;      75.00000; 0.000000e+000;75.00000;       0.34734;1.04642;4
209.32895; 73.00000; 7.03459;105.45713;      75.00000; 0.000000e+000;75.00000;      -0.43417;1.04671;4
211.82975; 73.25000; 7.02306;105.43454;      75.00000; 0.000000e+000;75.00000;      -0.68534;1.04696;4
214.32618; 73.50000; 7.01022;105.44935;      75.00000; 0.000000e+000;75.00000;      -0.67204;1.04717;4
216.82750; 73.75000; 6.99698;105.43631;      75.00000; 0.000000e+000;75.00000;       0.62387;1.04735;4
219.33665; 74.00000; 6.98672;105.41861;      75.00000; 0.000000e+000;75.00000;      -0.33027;1.04748;4
221.83561; 74.25000; 6.98329;105.42986;      75.00000; 0.000000e+000;75.00000;       1.35086;1.04758;4
224.33960; 74.50000; 6.98887;105.36698;      75.00000; 0.000000e+000;75.00000;       0.32452;1.04763;4
226.83841; 74.75000; 7.00504;105.35514;      75.00000; 0.000000e+000;75.00000;       1.75537;1.04764;4
229.33171; 75.00000; 7.03489;105.33239;      75.00000; 0.000000e+000;75.00000;       1.54008;1.04762;4
231.82878; 75.25000; 7.07406;105.32750;      75.00000; 0.000000e+000;75.00000;      -1.14588;1.04755;4
234.27990; 75.50000; 7.11874;105.29254;      75.00000; 0.000000e+000;75.00000;      -0.42289;1.04745;4
236.78827; 75.75000; 7.16556;105.29644;      75.00000; 0.000000e+000;75.00000;      -0.32424;1.04731;4
239.30472; 76.00000; 7.21049;105.31832;      75.00000; 0.000000e+000;75.00000;      -0.73626;1.04712;4
241.79653; 76.25000; 7.25294;105.31425;      75.00000; 0.000000e+000;75.00000;      -1.73916;1.04690;4
244.32042; 76.50000; 7.29083;105.33963;      75.00000; 0.000000e+000;75.00000;       0.29297;1.04664;4
246.81517; 76.75000; 7.32360;105.36528;      75.00000; 0.000000e+000;75.00000;       0.90756;1.04633;4
249.31643; 77.00000; 7.35136;105.38980;      75.00000; 0.000000e+000;75.00000;       1.14212;1.04599;4
251.82929; 77.25000; 7.37364;105.37994;      75.00000; 0.000000e+000;75.00000; 3.076540e-002;1.04561;4
254.34088; 77.50000; 7.39607;105.36925;      75.00000; 0.000000e+000;75.00000;      -1.13657;1.04518;4
256.84277; 77.75000; 7.41805;105.36449;      75.00000; 0.000000e+000;75.00000;      -0.30148;1.04472;4
259.32614; 78.00000; 7.43630;105.34947;      75.00000; 0.000000e+000;75.00000;       0.40347;1.04422;4
261.83310; 78.25000; 7.45461;105.33592;      75.00000; 0.000000e+000;75.00000;       0.39869;1.04368;4
264.33474; 78.50000; 7.47245;105.34355;      75.00000; 0.000000e+000;75.00000;      -0.79374;1.04310;4
266.84140; 78.75000; 7.49131;105.38354;      75.00000; 0.000000e+000;75.00000;       0.91583;1.04248;4
269.35073; 79.00000; 7.51180;105.34223;      75.00000; 0.000000e+000;75.00000;       0.16196;1.04182;4
271.84044; 79.25000; 7.52898;105.36456;      75.00000; 0.000000e+000;75.00000;       1.52337;1.04112;4
274.34598; 79.50000; 7.54830;105.28985;      75.00000; 0.000000e+000;75.00000; 8.153465e-002;1.04038;4
276.84876; 79.75000; 7.56360;105.32636;      75.00000; 0.000000e+000;75.00000;       0.49113;1.03961;4
279.35405; 80.00000; 7.57824;105.36686;      75.00000; 0.000000e+000;75.00000;       0.37260;1.03879;4
281.86343; 80.25000; 7.59292;105.35587;      75.00000; 0.000000e+000;75.00000;       0.36817;1.03793;4
284.36088; 80.50000; 7.60904;105.36066;      75.00000; 0.000000e+000;75.00000;-5.723179e-002;1.03704;4
286.85060; 80.75000; 7.62805;105.38958;      75.00000; 0.000000e+000;75.00000;      -0.38578;1.03611;4
289.36243; 81.00000; 7.64436;105.37318;      75.00000; 0.000000e+000;75.00000;       0.98904;1.03514;4
291.87534; 81.25000; 7.66024;105.42630;      75.00000; 0.000000e+000;75.00000;       1.46521;1.03413;4
294.37201; 81.50000; 7.67680;105.35953;      75.00000; 0.000000e+000;75.00000;       1.31678;1.03308;4
296.86839; 81.75000; 7.69003;105.29289;      75.00000; 0.000000e+000;75.00000;      -1.35152;1.03200;4
299.37341; 82.00000; 7.70535;105.38512;      75.00000; 0.000000e+000;75.00000;       0.67622;1.03087;4
301.86606; 82.25000; 7.71891;105.37877;      75.00000; 0.000000e+000;75.00000;      -1.70310;1.02971;4
304.35139; 82.50000; 7.72892;105.41297;      75.00000; 0.000000e+000;75.00000;       0.81714;1.02852;4
306.86288; 82.75000; 7.74051;105.36491;      75.00000; 0.000000e+000;75.00000;      -0.64801;1.02728;4
309.35644; 83.00000; 7.75022;105.31179;      75.00000; 0.000000e+000;75.00000;       0.86581;1.02601;4
311.84959; 83.25000; 7.75702;105.33758;      75.00000; 0.000000e+000;75.00000;      -0.59341;1.02470;4
314.37136; 83.50000; 7.76484;105.29242;      75.00000; 0.000000e+000;75.00000;      -0.45455;1.02334;4
316.86509; 83.75000; 7.76831;105.31113;      75.00000; 0.000000e+000;75.00000;      -0.80747;1.02195;4
319.36023; 84.00000; 7.77286;105.29158;      75.00000; 0.000000e+000;75.00000;       0.30431;1.02053;4
321.86328; 84.25000; 7.77130;105.31712;      75.00000; 0.000000e+000;75.00000;      -0.88830;1.01907;4
324.37414; 84.50000; 7.76701;105.27999;      75.00000; 0.000000e+000;75.00000;      -1.47142;1.01757;4
326.88053; 84.75000; 7.76091;105.26597;      75.00000; 0.000000e+000;75.00000;       0.67874;1.01603;4
329.36900; 85.00000; 7.75104;105.25810;      75.00000; 0.000000e+000;75.00000;      -1.46005;1.01446;4
331.87485; 85.25000; 7.73822;105.31846;      75.00000; 0.000000e+000;75.00000;      -0.33758;1.01285;4
334.37499; 85.50000; 7.71866;105.15973;      75.00000; 0.000000e+000;75.00000;      -0.32458;1.01121;4
336.87646; 85.75000; 7.69854;105.22703;      75.00000; 0.000000e+000;75.00000;      -0.72476;1.00953;4
339.36772; 86.00000; 7.67244;105.16104;      75.00000; 0.000000e+000;75.00000;       0.52220;1.00782;4
341.86172; 86.25000; 7.63651;105.14099;      75.00000; 0.000000e+000;75.00000;       0.56945;1.00608;4
344.36205; 86.50000; 7.59496;105.07047;      75.00000; 0.000000e+000;75.00000;      -0.42039;1.00429;4
346.86686; 86.75000; 7.54648;105.05422;      75.00000; 0.000000e+000;75.00000; 8.757282e-002;1.00247;4
349.37665; 87.00000; 7.48984;105.03168;      75.00000; 0.000000e+000;75.00000;       0.91963;1.00060;4
351.88452; 87.25000; 7.42296;104.96475;      75.00000; 0.000000e+000;75.00000;      -0.47183;0.99871;4
354.38485; 87.50000; 7.34336;104.96209;      75.00000; 0.000000e+000;75.00000;      -0.17982;0.99678;4
356.88171; 87.75000; 7.25669;104.90294;      75.00000; 0.000000e+000;75.00000;      -0.43526;0.99482;4
359.38471; 88.00000; 7.15555;104.76806;      75.00000; 0.000000e+000;75.00000;      -1.17471;0.99283;4
361.89758; 88.25000; 7.04340;104.65423;      75.00000; 0.000000e+000;75.00000;      -0.38027;0.99079;4
364.39324; 88.50000; 6.90943;104.53576;      75.00000; 0.000000e+000;75.00000;      -0.67853;0.98873;4
366.91237; 88.75000; 6.76226;104.45146;      75.00000; 0.000000e+000;75.00000;      -1.03858;0.98662;4
369.38181; 89.00000; 6.59629;104.31321;      75.00000; 0.000000e+000;75.00000;      -1.00195;0.98452;4
371.90645; 89.25000; 6.40791;104.15409;      75.00000; 0.000000e+000;75.00000;       0.63752;0.98233;4
374.39300; 89.50000; 6.20483;104.02139;      75.00000; 0.000000e+000;75.00000;      -1.06571;0.98015;4
376.90173; 89.75000; 5.98758;103.91025;      75.00000; 0.000000e+000;75.00000;      -1.78414;0.97792;4
379.40055; 90.00000; 5.75179;103.66542;      75.00000; 0.000000e+000;75.00000;      -1.10969;0.97566;4
381.89237; 90.25000; 5.50372;103.47160;      75.00000; 0.000000e+000;75.00000;      -0.66208;0.97337;4
384.40975; 90.50000; 5.24643;103.26146;      75.00000; 0.000000e+000;75.00000;      -0.88364;0.97103;4
386.90458; 90.75000; 4.98693;102.95931;      75.00000; 0.000000e+000;75.00000;      -1.48675;0.96868;4
389.40527; 91.00000; 4.73951;102.73985;      75.00000; 0.000000e+000;75.00000;      -1.50743;0.96630;4
391.91884; 91.25000; 4.50737;102.40742;      75.00000; 0.000000e+000;75.00000;       0.18819;0.96387;4
394.41979; 91.50000; 4.30139;102.06868;      75.00000; 0.000000e+000;75.00000;      -0.83351;0.96142;4
396.91451; 91.75000; 4.13471;101.85345;      75.00000; 0.000000e+000;75.00000;      -1.03134;0.95894;4
399.41840; 92.00000; 4.01565;101.39674;      75.00000; 0.000000e+000;75.00000;      -2.16147;0.95643;4
401.91524; 92.25000; 3.94976;101.05197;      75.00000; 0.000000e+000;75.00000;      -0.98158;0.95389;4
404.42175; 92.50000; 3.94853;100.73145;      75.00000; 0.000000e+000;75.00000;      -1.27731;0.95132;4
406.91248; 92.75000; 4.00210;100.42572;      75.00000; 0.000000e+000;75.00000;-5.741051e-002;0.94873;4
409.43081; 93.00000; 4.11707;100.08723;      75.00000; 0.000000e+000;75.00000;      -1.93878;0.94608;4
411.93690; 93.25000; 4.28006; 99.79809;      75.00000; 0.000000e+000;75.00000;      -2.23815;0.94342;4
414.42680; 93.50000; 4.49203; 99.51282;      75.00000; 0.000000e+000;75.00000;      -0.43153;0.94074;4
416.90905; 93.75000; 4.74155; 99.13126;      75.00000; 0.000000e+000;75.00000;-9.501183e-002;0.93804;4
419.40264; 94.00000; 5.01887; 98.83433;      75.00000; 0.000000e+000;75.00000;      -1.34161;0.93531;4
421.88141; 94.25000; 5.32603; 98.63723;      75.00000; 0.000000e+000;75.00000;      -1.55897;0.93256;4
424.38013; 94.50000; 5.64744; 98.41296;      75.00000; 0.000000e+000;75.00000;       0.58836;0.92977;4
426.86495; 94.75000; 5.98511; 98.13805;      75.00000; 0.000000e+000;75.00000;       0.47089;0.92696;4
429.35735; 95.00000; 6.32849; 97.97564;      75.00000; 0.000000e+000;75.00000;       0.77279;0.92412;4
431.85002; 95.25000; 6.67345; 97.79621;      75.00000; 0.000000e+000;75.00000;      -1.16977;0.92125;4
434.34443; 95.50000; 7.01202; 97.58774;      75.00000; 0.000000e+000;75.00000;      -1.02306;0.91835;4
436.84070; 95.75000; 7.34554; 97.50482;      75.00000; 0.000000e+000;75.00000;      -1.58476;0.91542;4
439.34889; 96.00000; 7.66840; 97.37615;      75.00000; 0.000000e+000;75.00000;      -0.67905;0.91245;4
441.83826; 96.25000; 7.98665; 97.28340;      75.00000; 0.000000e+000;75.00000;       0.72296;0.90949;4
444.35522; 96.50000; 8.28451; 97.15731;      75.00000; 0.000000e+000;75.00000;      -1.79700;0.90646;4
446.84658; 96.75000; 8.57027; 97.04389;      75.00000; 0.000000e+000;75.00000;      -0.47294;0.90344;4
449.35379; 97.00000; 8.83666; 96.97664;      75.00000; 0.000000e+000;75.00000;      -0.58158;0.90037;4
451.83703; 97.25000; 9.08487; 96.88962;      75.00000; 0.000000e+000;75.00000;-8.561823e-002;0.89731;4
454.36544; 97.50000; 9.31266; 96.86697;      75.00000; 0.000000e+000;75.00000;      -0.97453;0.89417;4
456.86104; 97.75000; 9.52565; 96.76974;      75.00000; 0.000000e+000;75.00000;       0.11951;0.89104;4
459.37332; 98.00000; 9.72376; 96.72498;      75.00000; 0.000000e+000;75.00000;-2.107447e-002;0.88788;4
461.87091; 98.25000; 9.90551; 96.64280;      75.00000; 0.000000e+000;75.00000;-7.694004e-002;0.88470;4
464.36248; 98.50000;10.06774; 96.68057;      75.00000; 0.000000e+000;75.00000;-3.242963e-002;0.88152;4
466.86235; 98.75000;10.21605; 96.63724;      75.00000; 0.000000e+000;75.00000;      -0.61800;0.87830;4
469.35925; 99.00000;10.34727; 96.65610;      75.00000; 0.000000e+000;75.00000;      -0.88768;0.87506;4
471.87006; 99.25000;10.46217; 96.62576;      75.00000; 0.000000e+000;75.00000;       1.28167;0.87178;4
474.38063; 99.50000;10.56992; 96.61960;      75.00000; 0.000000e+000;75.00000;       0.51751;0.86848;4
476.88505; 99.75000;10.67295; 96.60861;      75.00000; 0.000000e+000;75.00000;       0.76112;0.86517;4
479.38217;100.00000;10.76799; 96.64268;      75.00000; 0.000000e+000;75.00000;       0.96332;0.86184;4
481.88141;100.25000;10.85548; 96.59423;      75.00000; 0.000000e+000;75.00000;      -1.55280;0.85850;4
484.39717;100.50000;10.93857; 96.62970;      75.00000; 0.000000e+000;75.00000;-2.493278e-002;0.85511;4
486.88705;100.75000;11.01457; 96.61664;      75.00000; 0.000000e+000;75.00000; 9.043081e-002;0.85173;4
489.38230;101.00000;11.08820; 96.61285;      75.00000; 0.000000e+000;75.00000;      -0.41520;0.84833;4
491.88020;101.25000;11.16080; 96.53738;      75.00000; 0.000000e+000;75.00000;       0.46446;0.84491;4
494.40476;101.50000;11.23516; 96.53700;      75.00000; 0.000000e+000;75.00000;       0.32395;0.84143;4
496.89937;101.75000;11.31053; 96.58721;      75.00000; 0.000000e+000;75.00000;      -0.62065;0.83797;4
499.39935;102.00000;11.38497; 96.60870;      75.00000; 0.000000e+000;75.00000;      -0.88124;0.83449;4
501.88876;102.25000;11.45945; 96.58034;      75.00000; 0.000000e+000;75.00000;      -2.46017;0.83100;4
504.40565;102.50000;11.53886; 96.62131;      75.00000; 0.000000e+000;75.00000;      -0.82325;0.82746;4
506.89791;102.75000;11.61508; 96.53863;      75.00000; 0.000000e+000;75.00000;       1.02642;0.82394;4
509.40426;103.00000;11.68925; 96.60351;      75.00000; 0.000000e+000;75.00000;       0.20147;0.82038;4
511.89826;103.25000;11.76470; 96.60039;      75.00000; 0.000000e+000;75.00000;      -1.36125;0.81682;4
514.39049;103.50000;11.84222; 96.60255;      75.00000; 0.000000e+000;75.00000;       0.80714;0.81325;4
516.89849;103.75000;11.92124; 96.52476;      75.00000; 0.000000e+000;75.00000;       0.18695;0.80964;4
519.40099;104.00000;12.00015; 96.56165;      75.00000; 0.000000e+000;75.00000;      -0.11806;0.80602;4
521.90381;104.25000;12.08041; 96.55921;      75.00000; 0.000000e+000;75.00000; 2.700694e-002;0.80239;4
524.41518;104.50000;12.15934; 96.54304;      75.00000; 0.000000e+000;75.00000;      -0.46282;0.79872;4
526.90037;104.75000;12.24041; 96.52180;      75.00000; 0.000000e+000;75.00000;       1.92796;0.79509;4
529.42003;105.00000;12.32518; 96.59691;      75.00000; 0.000000e+000;75.00000;       0.11783;0.79139;4
531.90115;105.25000;12.41557; 96.64545;      75.00000; 0.000000e+000;75.00000;-8.342324e-002;0.78773;4
534.40209;105.50000;12.49801; 96.56891;      75.00000; 0.000000e+000;75.00000;      -0.50309;0.78403;4
536.91306;105.75000;12.58588; 96.56005;      75.00000; 0.000000e+000;75.00000;       0.72855;0.78030;4
539.41580;106.00000;12.68223; 96.53255;      75.00000; 0.000000e+000;75.00000;      -0.12087;0.77657;4
541.91390;106.25000;12.77189; 96.58331;      75.00000; 0.000000e+000;75.00000;      -0.22672;0.77283;4
544.42742;106.50000;12.86738; 96.56872;      75.00000; 0.000000e+000;75.00000;      -0.98054;0.76906;4
546.92781;106.75000;12.96543; 96.52170;      75.00000; 0.000000e+000;75.00000;       0.21144;0.76530;4
549.41461;107.00000;13.06183; 96.52172;      75.00000; 0.000000e+000;75.00000;       1.90865;0.76155;4
551.92405;107.25000;13.15648; 96.53415;      75.00000; 0.000000e+000;75.00000;       1.30466;0.75775;4
554.42844;107.50000;13.25782; 96.57813;      75.00000; 0.000000e+000;75.00000;       0.33508;0.75395;4
556.93763;107.75000;13.35795; 96.54480;      75.00000; 0.000000e+000;75.00000;       0.25488;0.75013;4
559.44852;108.00000;13.45588; 96.52937;      75.00000; 0.000000e+000;75.00000;      -0.58642;0.74630;4
561.95791;108.25000;13.55571; 96.56322;      75.00000; 0.000000e+000;75.00000;      -0.20710;0.74246;4
564.45550;108.50000;13.66514; 96.55921;      75.00000; 0.000000e+000;75.00000;      -0.25393;0.73863;4
566.95895;108.75000;13.77258; 96.56509;      75.00000; 0.000000e+000;75.00000;       0.32905;0.73478;4
569.45283;109.00000;13.87833; 96.54978;      75.00000; 0.000000e+000;75.00000;      -0.55642;0.73094;4
571.94071;109.25000;13.98424; 96.49954;      75.00000; 0.000000e+000;75.00000;       0.45814;0.72710;4
574.44224;109.50000;14.08906; 96.55005;      75.00000; 0.000000e+000;75.00000;       0.75529;0.72323;4
576.96099;109.75000;14.20102; 96.55324;      75.00000; 0.000000e+000;75.00000;       0.69141;0.71932;4
579.46302;110.00000;14.31244; 96.50267;      75.00000; 0.000000e+000;75.00000;       0.47934;0.71544;4
581.96873;110.25000;14.42922; 96.48149;      75.00000; 0.000000e+000;75.00000;      -0.10356;0.71154;4
584.47844;110.50000;14.54275; 96.53929;      75.00000; 0.000000e+000;75.00000; 6.599282e-002;0.70763;4
586.98943;110.75000;14.66406; 96.54204;      75.00000; 0.000000e+000;75.00000; 3.594118e-002;0.70371;4
589.48590;111.00000;14.78503; 96.51449;      75.00000; 0.000000e+000;75.00000;       1.17817;0.69981;4
591.99101;111.25000;14.90795; 96.38005;      75.00000; 0.000000e+000;75.00000; 1.643568e-002;0.69589;4
594.49921;111.50000;15.03722; 96.47471;      75.00000; 0.000000e+000;75.00000;      -1.19277;0.69195;4
597.00649;111.75000;15.15953; 96.46059;      75.00000; 0.000000e+000;75.00000;       1.40383;0.68802;4
599.52649;112.00000;15.29753; 96.45746;      75.00000; 0.000000e+000;75.00000;      -0.55900;0.68406;4
602.05742;112.25000;15.43575; 96.40971;      75.00000; 0.000000e+000;75.00000;       0.60148;0.68008;4
604.54530;112.50000;15.57356; 96.40013;      75.00000; 0.000000e+000;75.00000;       0.61826;0.67616;4
607.02925;112.75000;15.71279; 96.40438;      75.00000; 0.000000e+000;75.00000;       1.00087;0.67225;4
609.52383;113.00000;15.84419; 96.38023;      75.00000; 0.000000e+000;75.00000;       0.24128;0.66831;4
612.01352;113.25000;15.97975; 96.44924;      75.00000; 0.000000e+000;75.00000;       0.13635;0.66438;4
614.50344;113.50000;16.10909; 96.40334;      75.00000; 0.000000e+000;75.00000;       1.09602;0.66045;4
616.97743;113.75000;16.24300; 96.39764;      75.00000; 0.000000e+000;75.00000;       0.69296;0.65654;4
619.48595;114.00000;16.37875; 96.34901;      75.00000; 0.000000e+000;75.00000; 4.026234e-002;0.65257;4
621.99657;114.25000;16.51686; 96.32973;      75.00000; 0.000000e+000;75.00000;       0.63685;0.64860;4
624.49637;114.50000;16.65998; 96.35999;      75.00000; 0.000000e+000;75.00000;      -0.36591;0.64464;4
626.98694;114.75000;16.80446; 96.31820;      75.00000; 0.000000e+000;75.00000;       0.69158;0.64070;4
629.50558;115.00000;16.94586; 96.31800;      75.00000; 0.000000e+000;75.00000; 3.678322e-002;0.63671;4
631.98827;115.25000;17.08971; 96.34853;      75.00000; 0.000000e+000;75.00000;       0.63340;0.63278;4
634.49354;115.50000;17.23244; 96.39363;      75.00000; 0.000000e+000;75.00000;-2.473433e-003;0.62881;4
636.99513;115.75000;17.38256; 96.30014;      75.00000; 0.000000e+000;75.00000;       0.71635;0.62485;4
639.49632;116.00000;17.53495; 96.37664;      75.00000; 0.000000e+000;75.00000;      -0.17239;0.62089;4
641.98613;116.25000;17.69041; 96.31723;      75.00000; 0.000000e+000;75.00000;      -0.96064;0.61695;4
644.48311;116.50000;17.83994; 96.37687;      75.00000; 0.000000e+000;75.00000;      -0.20177;0.61300;4
646.99046;116.75000;17.99747; 96.35611;      75.00000; 0.000000e+000;75.00000;       0.82501;0.60903;4
649.49099;117.00000;18.15968; 96.33266;      75.00000; 0.000000e+000;75.00000;      -0.60746;0.60508;4
651.98644;117.25000;18.32567; 96.44594;      75.00000; 0.000000e+000;75.00000;       0.39562;0.60113;4
654.47894;117.50000;18.49417; 96.47717;      75.00000; 0.000000e+000;75.00000;      -0.30054;0.59720;4
656.98858;117.75000;18.67031; 96.40366;      75.00000; 0.000000e+000;75.00000;      -0.54380;0.59323;4
659.48111;118.00000;18.84140; 96.36496;      75.00000; 0.000000e+000;75.00000;      -0.14515;0.58930;4
661.98241;118.25000;19.02794; 96.42487;      75.00000; 0.000000e+000;75.00000;       0.50017;0.58536;4
664.47992;118.50000;19.20069; 96.46637;      75.00000; 0.000000e+000;75.00000;       0.25168;0.58142;4
666.98680;118.75000;19.38583; 96.35673;      75.00000; 0.000000e+000;75.00000;       0.61109;0.57748;4
669.50040;119.00000;19.56821; 96.41896;      75.00000; 0.000000e+000;75.00000;      -1.39889;0.57353;4
671.97709;119.25000;19.75931; 96.43675;      75.00000; 0.000000e+000;75.00000;      -0.31562;0.56964;4
674.47686;119.50000;19.94131; 96.45608;      75.00000; 0.000000e+000;75.00000;      -0.80125;0.56572;4
676.98055;119.75000;20.13353; 96.48268;      75.00000; 0.000000e+000;75.00000;       0.24916;0.56179;4
679.48727;120.00000;20.33848; 96.50181;      75.00000; 0.000000e+000;75.00000;      -1.24122;0.55787;4
681.98814;120.25000;20.52507; 96.48016;      75.00000; 0.000000e+000;75.00000;       0.66266;0.55396;4
684.47926;120.50000;20.72460; 96.51200;      75.00000; 0.000000e+000;75.00000;       1.34580;0.55008;4
686.98644;120.75000;20.91740; 96.47882;      75.00000; 0.000000e+000;75.00000;      -0.37568;0.54617;4
689.50300;121.00000;21.12305; 96.53324;      75.00000; 0.000000e+000;75.00000;      -0.58982;0.54225;4
692.00367;121.25000;21.33282; 96.54131;      75.00000; 0.000000e+000;75.00000;       1.03908;0.53837;4
694.50332;121.50000;21.54007; 96.58690;      75.00000; 0.000000e+000;75.00000;       1.01905;0.53449;4
697.00778;121.75000;21.75599; 96.59581;      75.00000; 0.000000e+000;75.00000; 9.202281e-002;0.53062;4
699.47501;122.00000;21.96154; 96.62528;      75.00000; 0.000000e+000;75.00000;      -1.99429;0.52680;4

