#EXPORTTYPE:DATA ALL
#FILE:60CP60012CoPU5GPM-1C.ngb-ss4
#FORMAT:NETZSCH5
#FTYPE:ANSI
#IDENTITY:60CP60012CoPU5GPM-1C
#DECIMAL:POINT
#SEPARATOR:SEMICOLON
#MTYPE:DTA
#INSTRUMENT:NETZSCH STA 2500
#PROJECT:HÉCTOR ROMERO
#DATE/TIME:14.01.2020 10:00
#CORR. FILE:
#TEMPCAL:cal prueba.ngb-ts4
#SENSITIVITY:prueba cal sensibilidad.ngb-es4
#LABORATORY:ESIQIE
#OPERATOR:wendynoemi
#REMARK:
#SAMPLE:60CP60012CoPU5GPM-1C
#SAMPLE MASS /mg:4.980
#MATERIAL:ALUMINA
#REFERENCE:Crisol+Alumina
#REFERENCE MASS /mg:14.783
#TYPE OF CRUCIBLE:Al2O3 pan for STA2500
#SAMPLE CRUCIBLE MASS /mg:38.223
#REFERENCE CRUCIBLE MASS /mg:43.950
#TG RANGE /mg:500
#TAU-R:---
#CORR. CODE:000
#EXO:-1
#RANGE:20°C....700°C/-10.0....10.0K/min
#SEGMENT:S1-4/4
#SEG. 1:20°C/10.0(K/min)/150°C
#SEG. 2:150°C/00:30/150°C
#SEG. 3:150°C/10.0(K/min)/30°C
#SEG. 4:30°C/5.0(K/min)/700°C

##Temp./°C;Time/min;DTA/(mW/mg);Mass/%;Gas Flow(purge1)/(ml/min);Gas Flow(purge2)/(ml/min);Gas Flow(protective)/(ml/min);DTG/(%/min);Sensit./(uV/mW);Segment
 20.55400;  0.00000; 5.90922;100.00000; 0.000000e+000;      75.00000;75.00000;       1.43293;0.92161;1
 20.86500;  0.25000; 5.93918; 99.75181; 0.000000e+000;      75.00000;75.00000;       0.23906;0.92196;1
 22.09600;  0.50000; 6.02488; 99.82731; 0.000000e+000;      75.00000;75.00000;      -0.61208;0.92337;1
 23.92400;  0.75000; 6.11964; 99.60209; 0.000000e+000;      75.00000;75.00000;      -1.35360;0.92544;1
 26.25000;  1.00000; 6.16658; 99.32843; 0.000000e+000;      75.00000;75.00000;      -0.93975;0.92806;1
 28.83400;  1.25000; 6.17381; 99.35229; 0.000000e+000;      75.00000;75.00000;      -1.56033;0.93095;1
 31.61400;  1.50000; 6.16926; 99.25703; 0.000000e+000;      75.00000;75.00000;      -1.29012;0.93402;1
 34.48500;  1.75000; 6.17346; 99.27020; 0.000000e+000;      75.00000;75.00000;      -0.30940;0.93715;1
 37.38800;  2.00000; 6.18384; 99.26281; 0.000000e+000;      75.00000;75.00000;       0.10589;0.94029;1
 40.23900;  2.25000; 6.19054; 99.25116; 0.000000e+000;      75.00000;75.00000;       0.40776;0.94333;1
 43.05900;  2.50000; 6.20023; 99.32819; 0.000000e+000;      75.00000;75.00000;       0.45070;0.94630;1
 45.83900;  2.75000; 6.22538; 99.42193; 0.000000e+000;      75.00000;75.00000;       0.79708;0.94920;1
 48.53500;  3.00000; 6.24859; 99.41944; 0.000000e+000;      75.00000;75.00000;      -0.29563;0.95197;1
 51.19600;  3.25000; 6.26731; 99.43534; 0.000000e+000;      75.00000;75.00000;       0.19285;0.95468;1
 53.81500;  3.50000; 6.29042; 99.49108; 0.000000e+000;      75.00000;75.00000;      -0.58667;0.95731;1
 56.37700;  3.75000; 6.31366; 99.53092; 0.000000e+000;      75.00000;75.00000;       0.94450;0.95985;1
 58.94400;  4.00000; 6.34062; 99.55092; 0.000000e+000;      75.00000;75.00000;       0.38443;0.96236;1
 61.49900;  4.25000; 6.36613; 99.57542; 0.000000e+000;      75.00000;75.00000;      -0.13920;0.96484;1
 64.01100;  4.50000; 6.39231; 99.54394; 0.000000e+000;      75.00000;75.00000;       0.46662;0.96724;1
 66.50900;  4.75000; 6.41944; 99.60546; 0.000000e+000;      75.00000;75.00000;       0.67262;0.96959;1
 69.02100;  5.00000; 6.44529; 99.66426; 0.000000e+000;      75.00000;75.00000;      -0.53985;0.97193;1
 71.51000;  5.25000; 6.47137; 99.66972; 0.000000e+000;      75.00000;75.00000;       0.19481;0.97422;1
 74.01400;  5.50000; 6.49682; 99.68225; 0.000000e+000;      75.00000;75.00000;       1.76317;0.97648;1
 76.50500;  5.75000; 6.51836; 99.70787; 0.000000e+000;      75.00000;75.00000;       1.64308;0.97871;1
 79.00600;  6.00000; 6.54308; 99.68225; 0.000000e+000;      75.00000;75.00000;       0.44351;0.98091;1
 81.50600;  6.25000; 6.56495; 99.74450; 0.000000e+000;      75.00000;75.00000;      -1.18397;0.98308;1
 84.01300;  6.50000; 6.58706; 99.76080; 0.000000e+000;      75.00000;75.00000;       0.30638;0.98523;1
 86.53600;  6.75000; 6.60920; 99.74884; 0.000000e+000;      75.00000;75.00000;       0.29094;0.98735;1
 89.06300;  7.00000; 6.63067; 99.77020; 0.000000e+000;      75.00000;75.00000;       0.18829;0.98944;1
 91.59200;  7.25000; 6.65273; 99.65414; 0.000000e+000;      75.00000;75.00000; 1.974594e-002;0.99150;1
 94.11600;  7.50000; 6.67542; 99.77510; 0.000000e+000;      75.00000;75.00000;      -0.24346;0.99353;1
 96.63300;  7.75000; 6.69458; 99.82394; 0.000000e+000;      75.00000;75.00000;      -0.72624;0.99551;1
 99.17300;  8.00000; 6.71378; 99.86217; 0.000000e+000;      75.00000;75.00000;       1.64829;0.99748;1
101.68300;  8.25000; 6.73651; 99.91189; 0.000000e+000;      75.00000;75.00000;       1.15301;0.99939;1
104.21600;  8.50000; 6.75820; 99.88940; 0.000000e+000;      75.00000;75.00000;       0.42723;1.00128;1
106.71200;  8.75000; 6.77916; 99.92161; 0.000000e+000;      75.00000;75.00000;       0.72314;1.00311;1
109.20900;  9.00000; 6.79860; 99.91486; 0.000000e+000;      75.00000;75.00000;       0.59899;1.00491;1
111.69800;  9.25000; 6.81930; 99.92281; 0.000000e+000;      75.00000;75.00000;      -0.47603;1.00667;1
114.17600;  9.50000; 6.83687; 99.94554; 0.000000e+000;      75.00000;75.00000;      -1.08148;1.00838;1
116.67200;  9.75000; 6.85272; 99.90177; 0.000000e+000;      75.00000;75.00000;       0.14873;1.01008;1
119.18000; 10.00000; 6.87718; 99.84964; 0.000000e+000;      75.00000;75.00000;      -0.17145;1.01174;1
121.67700; 10.25000; 6.90064; 99.90843; 0.000000e+000;      75.00000;75.00000;       1.43966;1.01336;1
124.19200; 10.50000; 6.92585; 99.97253; 0.000000e+000;      75.00000;75.00000;      -1.41005;1.01496;1
126.69800; 10.75000; 6.94644; 99.99783; 0.000000e+000;      75.00000;75.00000;      -0.61808;1.01652;1
129.20700; 11.00000; 6.96570; 99.99944; 0.000000e+000;      75.00000;75.00000;      -1.01930;1.01804;1
131.71600; 11.25000; 6.98591; 99.99084; 0.000000e+000;      75.00000;75.00000;       0.38347;1.01952;1
134.24001; 11.50000; 7.00459; 99.96169; 0.000000e+000;      75.00000;75.00000;      -1.38259;1.02098;1
136.74899; 11.75000; 7.02264; 99.85976; 0.000000e+000;      75.00000;75.00000;       0.90295;1.02239;1
139.27000; 12.00000; 7.04354; 99.90578; 0.000000e+000;      75.00000;75.00000;      -0.36711;1.02378;1
141.78200; 12.25000; 7.06065;100.11936; 0.000000e+000;      75.00000;75.00000;       0.37169;1.02511;1
144.30400; 12.50000; 7.07777;100.08586; 0.000000e+000;      75.00000;75.00000;       1.68859;1.02642;1
146.81300; 12.75000; 7.10098;100.14602; 0.000000e+000;      75.00000;75.00000;      -0.20973;1.02768;1
149.31927; 13.00000; 7.12521;100.13753; 0.000000e+000;      75.00000;75.00000;      -0.37493;1.02891;2
151.43234; 13.25000; 7.16148;100.11237; 0.000000e+000;      75.00000;75.00000;-4.403958e-002;1.02991;2
152.27724; 13.50000; 7.24311;100.09154; 0.000000e+000;      75.00000;75.00000;-3.147971e-002;1.03030;2
152.54316; 13.75000; 7.31447;100.13324; 0.000000e+000;      75.00000;75.00000;-2.801661e-003;1.03043;2
152.43955; 14.00000; 7.36923;100.07033; 0.000000e+000;      75.00000;75.00000;       0.10049;1.03038;2
152.11450; 14.25000; 7.40500;100.12467; 0.000000e+000;      75.00000;75.00000;       0.11526;1.03023;2
151.75778; 14.50000; 7.41821;100.15383; 0.000000e+000;      75.00000;75.00000; 1.722100e-004;1.03006;2
151.35176; 14.75000; 7.41981;100.24038; 0.000000e+000;      75.00000;75.00000;       0.22791;1.02987;2
151.01480; 15.00000; 7.41294;100.16786; 0.000000e+000;      75.00000;75.00000;-7.487466e-002;1.02971;2
150.69275; 15.25000; 7.39824;100.16741; 0.000000e+000;      75.00000;75.00000;-1.313528e-003;1.02956;2
150.47985; 15.50000; 7.38226;100.18046; 0.000000e+000;      75.00000;75.00000; 6.430121e-002;1.02946;2
150.31775; 15.75000; 7.36333;100.23112; 0.000000e+000;      75.00000;75.00000;       0.13561;1.02938;2
150.19769; 16.00000; 7.34497;100.21014; 0.000000e+000;      75.00000;75.00000;       0.16492;1.02933;2
150.12106; 16.25000; 7.32910;100.27099; 0.000000e+000;      75.00000;75.00000;      -0.12866;1.02929;2
150.05352; 16.50000; 7.31385;100.30871; 0.000000e+000;      75.00000;75.00000;       0.26759;1.02926;2
150.03062; 16.75000; 7.30186;100.31832; 0.000000e+000;      75.00000;75.00000; 8.464215e-002;1.02925;2
150.00655; 17.00000; 7.29009;100.33034; 0.000000e+000;      75.00000;75.00000; 2.176352e-002;1.02924;2
149.99906; 17.25000; 7.28100;100.30072; 0.000000e+000;      75.00000;75.00000; 5.965355e-002;1.02923;2
150.00894; 17.50000; 7.27209;100.35874; 0.000000e+000;      75.00000;75.00000; 5.782382e-002;1.02924;2
150.02985; 17.75000; 7.26558;100.37496; 0.000000e+000;      75.00000;75.00000;-9.933491e-002;1.02925;2
150.03112; 18.00000; 7.25822;100.38603; 0.000000e+000;      75.00000;75.00000;       0.11623;1.02925;2
150.02985; 18.25000; 7.25294;100.36969; 0.000000e+000;      75.00000;75.00000; 5.252056e-002;1.02925;2
150.02087; 18.50000; 7.24628;100.35250; 0.000000e+000;      75.00000;75.00000; 2.269385e-002;1.02924;2
150.03899; 18.75000; 7.24137;100.44084; 0.000000e+000;      75.00000;75.00000; 9.774220e-002;1.02925;2
150.05234; 19.00000; 7.23675;100.47123; 0.000000e+000;      75.00000;75.00000; 5.021822e-002;1.02926;2
150.05105; 19.25000; 7.23313;100.46781; 0.000000e+000;      75.00000;75.00000; 4.879341e-002;1.02926;2
150.05520; 19.50000; 7.22974;100.44474; 0.000000e+000;      75.00000;75.00000; 1.892133e-002;1.02926;2
150.05759; 19.75000; 7.22686;100.44656; 0.000000e+000;      75.00000;75.00000; 9.807009e-002;1.02926;2
150.05729; 20.00000; 7.22403;100.49260; 0.000000e+000;      75.00000;75.00000; 4.921687e-002;1.02926;2
150.06497; 20.25000; 7.22126;100.52188; 0.000000e+000;      75.00000;75.00000; 7.886350e-002;1.02926;2
150.06952; 20.50000; 7.21832;100.58870; 0.000000e+000;      75.00000;75.00000;       0.16517;1.02927;2
150.06441; 20.75000; 7.21581;100.52747; 0.000000e+000;      75.00000;75.00000;       0.11606;1.02926;2
150.04922; 21.00000; 7.21351;100.58360; 0.000000e+000;      75.00000;75.00000;       0.12852;1.02926;2
150.04419; 21.25000; 7.21072;100.63103; 0.000000e+000;      75.00000;75.00000; 8.050328e-002;1.02925;2
150.03731; 21.50000; 7.20898;100.60959; 0.000000e+000;      75.00000;75.00000;       0.15425;1.02925;2
150.03919; 21.75000; 7.20592;100.63028; 0.000000e+000;      75.00000;75.00000; 8.446432e-002;1.02925;2
150.04208; 22.00000; 7.20503;100.65642; 0.000000e+000;      75.00000;75.00000; 5.245492e-002;1.02925;2
150.04017; 22.25000; 7.20403;100.69063; 0.000000e+000;      75.00000;75.00000;       0.14371;1.02925;2
150.04553; 22.50000; 7.20082;100.78099; 0.000000e+000;      75.00000;75.00000; 5.122303e-002;1.02926;2
150.01727; 22.75000; 7.19979;100.66606; 0.000000e+000;      75.00000;75.00000;-9.304411e-002;1.02924;2
150.04249; 23.00000; 7.19715;100.72329; 0.000000e+000;      75.00000;75.00000;       0.17625;1.02925;2
150.04769; 23.25000; 7.19701;100.78174; 0.000000e+000;      75.00000;75.00000;-8.304286e-002;1.02926;2
150.03986; 23.50000; 7.19511;100.74502; 0.000000e+000;      75.00000;75.00000;       0.21524;1.02925;2
150.03128; 23.75000; 7.19568;100.76323; 0.000000e+000;      75.00000;75.00000;-7.964991e-002;1.02925;2
150.03549; 24.00000; 7.19316;100.72134; 0.000000e+000;      75.00000;75.00000;       0.12098;1.02925;2
150.04067; 24.25000; 7.19214;100.79540; 0.000000e+000;      75.00000;75.00000; 4.219802e-002;1.02925;2
150.02229; 24.50000; 7.19102;100.80774; 0.000000e+000;      75.00000;75.00000; 9.008977e-002;1.02924;2
150.03717; 24.75000; 7.19070;100.83622; 0.000000e+000;      75.00000;75.00000;      -0.12309;1.02925;2
150.03273; 25.00000; 7.18853;100.82211; 0.000000e+000;      75.00000;75.00000;-3.853988e-002;1.02925;2
150.02584; 25.25000; 7.18679;100.83184; 0.000000e+000;      75.00000;75.00000;       0.15001;1.02925;2
150.03178; 25.50000; 7.18810;100.84012; 0.000000e+000;      75.00000;75.00000; 8.817190e-002;1.02925;2
150.02208; 25.75000; 7.18696;100.85491; 0.000000e+000;      75.00000;75.00000; 2.752309e-002;1.02924;2
150.03177; 26.00000; 7.18541;100.86715; 0.000000e+000;      75.00000;75.00000;       0.14463;1.02925;2
150.01223; 26.25000; 7.18491;100.84462; 0.000000e+000;      75.00000;75.00000;-4.560680e-002;1.02924;2
150.03451; 26.50000; 7.18389;100.88992; 0.000000e+000;      75.00000;75.00000;-8.349231e-002;1.02925;2
150.01927; 26.75000; 7.18383;100.80412; 0.000000e+000;      75.00000;75.00000;-4.276023e-003;1.02924;2
150.02178; 27.00000; 7.18272;100.96674; 0.000000e+000;      75.00000;75.00000;       0.58453;1.02924;2
150.01663; 27.25000; 7.18117;101.01358; 0.000000e+000;      75.00000;75.00000; 4.457634e-002;1.02924;2
150.00596; 27.50000; 7.18046;101.03649; 0.000000e+000;      75.00000;75.00000; 3.084872e-003;1.02924;2
150.02809; 27.75000; 7.18159;101.09378; 0.000000e+000;      75.00000;75.00000; 8.645562e-002;1.02925;2
150.02891; 28.00000; 7.18065;101.04583; 0.000000e+000;      75.00000;75.00000; 6.018473e-003;1.02925;2
150.03375; 28.25000; 7.17919;101.02190; 0.000000e+000;      75.00000;75.00000; 8.042576e-002;1.02925;2
150.01100; 28.50000; 7.17952;101.11439; 0.000000e+000;      75.00000;75.00000;       0.20572;1.02924;2
149.99865; 28.75000; 7.17852;101.12156; 0.000000e+000;      75.00000;75.00000;-5.300373e-002;1.02923;2
150.01661; 29.00000; 7.17848;101.05536; 0.000000e+000;      75.00000;75.00000;       0.18217;1.02924;2
150.00686; 29.25000; 7.17747;101.13620; 0.000000e+000;      75.00000;75.00000;-9.012852e-002;1.02924;2
150.02652; 29.50000; 7.17803;101.12444; 0.000000e+000;      75.00000;75.00000;       0.18609;1.02925;2
150.02208; 29.75000; 7.17905;101.14061; 0.000000e+000;      75.00000;75.00000; 5.838057e-002;1.02924;2
150.00330; 30.00000; 7.17675;101.17426; 0.000000e+000;      75.00000;75.00000;-5.264283e-002;1.02924;2
150.02905; 30.25000; 7.17652;101.22429; 0.000000e+000;      75.00000;75.00000;       0.11028;1.02925;2
150.01907; 30.50000; 7.17581;101.22615; 0.000000e+000;      75.00000;75.00000;       0.22055;1.02924;2
150.02608; 30.75000; 7.17424;101.22464; 0.000000e+000;      75.00000;75.00000;      -0.13786;1.02925;2
150.01689; 31.00000; 7.17579;101.24700; 0.000000e+000;      75.00000;75.00000; 5.472774e-002;1.02924;2
150.01326; 31.25000; 7.17601;101.27285; 0.000000e+000;      75.00000;75.00000;-6.462279e-003;1.02924;2
150.00397; 31.50000; 7.17573;101.22151; 0.000000e+000;      75.00000;75.00000;       0.21765;1.02924;2
150.01531; 31.75000; 7.17627;101.26716; 0.000000e+000;      75.00000;75.00000;-3.533463e-002;1.02924;2
150.01130; 32.00000; 7.17542;101.33514; 0.000000e+000;      75.00000;75.00000;       0.11719;1.02924;2
150.00534; 32.25000; 7.17420;101.32601; 0.000000e+000;      75.00000;75.00000;      -0.11848;1.02924;2
150.00588; 32.50000; 7.17394;101.29247; 0.000000e+000;      75.00000;75.00000; 8.901924e-002;1.02924;2
150.00817; 32.75000; 7.17392;101.26028; 0.000000e+000;      75.00000;75.00000;      -0.27588;1.02924;2
149.98824; 33.00000; 7.17394;101.11905; 0.000000e+000;      75.00000;75.00000;-5.932717e-002;1.02923;2
150.00342; 33.25000; 7.17252;101.43712; 0.000000e+000;      75.00000;75.00000;       0.70560;1.02924;2
150.01147; 33.50000; 7.17259;101.41946; 0.000000e+000;      75.00000;75.00000; 7.011617e-002;1.02924;2
150.01543; 33.75000; 7.17405;101.36798; 0.000000e+000;      75.00000;75.00000; 5.579189e-002;1.02924;2
150.02218; 34.00000; 7.17512;101.46999; 0.000000e+000;      75.00000;75.00000;       0.14053;1.02924;2
150.00501; 34.25000; 7.17589;101.47113; 0.000000e+000;      75.00000;75.00000; 1.532653e-002;1.02924;2
150.01123; 34.50000; 7.17453;101.45193; 0.000000e+000;      75.00000;75.00000; 5.210620e-002;1.02924;2
150.01914; 34.75000; 7.17570;101.46033; 0.000000e+000;      75.00000;75.00000; 1.632630e-002;1.02924;2
150.01156; 35.00000; 7.17433;101.51400; 0.000000e+000;      75.00000;75.00000; 7.237904e-002;1.02924;2
150.02409; 35.25000; 7.17491;101.46550; 0.000000e+000;      75.00000;75.00000;-3.048110e-002;1.02925;2
150.00621; 35.50000; 7.17464;101.47116; 0.000000e+000;      75.00000;75.00000; 7.699891e-002;1.02924;2
150.00885; 35.75000; 7.17526;101.57576; 0.000000e+000;      75.00000;75.00000;-4.163725e-002;1.02924;2
150.01425; 36.00000; 7.17615;101.53083; 0.000000e+000;      75.00000;75.00000;       0.11670;1.02924;2
150.01875; 36.25000; 7.17504;101.53970; 0.000000e+000;      75.00000;75.00000;       0.10707;1.02924;2
150.01052; 36.50000; 7.17499;101.55381; 0.000000e+000;      75.00000;75.00000; 3.886890e-002;1.02924;2
150.00766; 36.75000; 7.17562;101.58247; 0.000000e+000;      75.00000;75.00000; 6.427386e-002;1.02924;2
150.01892; 37.00000; 7.17440;101.60706; 0.000000e+000;      75.00000;75.00000; 9.403006e-002;1.02924;2
150.01160; 37.25000; 7.17523;101.65671; 0.000000e+000;      75.00000;75.00000; 5.932240e-002;1.02924;2
149.99592; 37.50000; 7.17347;101.70481; 0.000000e+000;      75.00000;75.00000;-2.231048e-002;1.02923;2
150.00708; 37.75000; 7.17545;101.61632; 0.000000e+000;      75.00000;75.00000; 3.441854e-002;1.02924;2
149.99071; 38.00000; 7.17414;101.66487; 0.000000e+000;      75.00000;75.00000;       0.10367;1.02923;2
150.01121; 38.25000; 7.17406;101.64129; 0.000000e+000;      75.00000;75.00000;-3.183096e-003;1.02924;2
150.01369; 38.50000; 7.17543;101.73482; 0.000000e+000;      75.00000;75.00000;-2.490240e-002;1.02924;2
150.00080; 38.75000; 7.17438;101.72538; 0.000000e+000;      75.00000;75.00000;       0.15576;1.02923;2
150.01115; 39.00000; 7.17466;101.68133; 0.000000e+000;      75.00000;75.00000; 6.995397e-002;1.02924;2
150.00530; 39.25000; 7.17510;101.70822; 0.000000e+000;      75.00000;75.00000;-6.563295e-002;1.02924;2
150.00032; 39.50000; 7.17539;101.70359; 0.000000e+000;      75.00000;75.00000;       0.12908;1.02923;2
150.00349; 39.75000; 7.17731;101.65854; 0.000000e+000;      75.00000;75.00000;-8.429985e-003;1.02924;2
150.00649; 40.00000; 7.17558;101.72491; 0.000000e+000;      75.00000;75.00000; 7.314025e-002;1.02924;2
150.00086; 40.25000; 7.17556;101.78035; 0.000000e+000;      75.00000;75.00000; 3.870523e-002;1.02923;2
150.00369; 40.50000; 7.17493;101.77807; 0.000000e+000;      75.00000;75.00000;       0.21364;1.02924;2
150.00366; 40.75000; 7.17578;101.75151; 0.000000e+000;      75.00000;75.00000;-1.459018e-002;1.02924;2
149.99471; 41.00000; 7.17661;101.79921; 0.000000e+000;      75.00000;75.00000;-3.088777e-002;1.02923;2
150.00677; 41.25000; 7.17686;101.74777; 0.000000e+000;      75.00000;75.00000; 7.881348e-002;1.02924;2
150.00092; 41.50000; 7.17603;101.79055; 0.000000e+000;      75.00000;75.00000; 1.441776e-002;1.02923;2
150.00702; 41.75000; 7.17631;101.76353; 0.000000e+000;      75.00000;75.00000;-1.326333e-002;1.02924;2
150.00896; 42.00000; 7.17616;101.87447; 0.000000e+000;      75.00000;75.00000; 5.806595e-002;1.02924;2
150.01840; 42.25000; 7.17587;101.80364; 0.000000e+000;      75.00000;75.00000;-5.356769e-002;1.02924;2
150.00183; 42.50000; 7.17590;101.81645; 0.000000e+000;      75.00000;75.00000; 2.219041e-002;1.02923;2
150.00944; 42.75000; 7.17529;101.87707; 0.000000e+000;      75.00000;75.00000;       0.15021;1.02924;2
150.01601; 43.00000; 7.17538;101.88104; 0.000000e+000;      75.00000;75.00000;       0.20783;1.02924;3
149.67700; 43.25000; 7.18589;101.87221; 0.000000e+000;      75.00000;75.00000;       0.52255;1.02908;3
148.13600; 43.50000; 7.23251;101.86940; 0.000000e+000;      75.00000;75.00000;      -0.65186;1.02833;3
145.90500; 43.75000; 7.24892;101.86329; 0.000000e+000;      75.00000;75.00000;       0.75859;1.02723;3
143.33099; 44.00000; 7.23966;101.87253; 0.000000e+000;      75.00000;75.00000;-4.061681e-002;1.02592;3
140.54401; 44.25000; 7.22786;101.86233; 0.000000e+000;      75.00000;75.00000;      -0.26366;1.02446;3
137.71001; 44.50000; 7.21354;101.90434; 0.000000e+000;      75.00000;75.00000;       0.41269;1.02292;3
134.91400; 44.75000; 7.23086;101.91478; 0.000000e+000;      75.00000;75.00000;      -0.94825;1.02136;3
132.08299; 45.00000; 7.20213;101.87004; 0.000000e+000;      75.00000;75.00000;       0.76192;1.01974;3
129.32100; 45.25000; 7.16672;101.92980; 0.000000e+000;      75.00000;75.00000;       1.11058;1.01811;3
126.60400; 45.50000; 7.12770;101.96353; 0.000000e+000;      75.00000;75.00000;       1.71004;1.01646;3
123.94600; 45.75000; 7.08934;101.99783; 0.000000e+000;      75.00000;75.00000;       0.48654;1.01481;3
121.33100; 46.00000; 7.04838;101.94426; 0.000000e+000;      75.00000;75.00000;      -0.20787;1.01314;3
118.78000; 46.25000; 7.01134;102.03398; 0.000000e+000;      75.00000;75.00000;       1.25265;1.01148;3
116.29900; 46.50000; 6.96487;102.08337; 0.000000e+000;      75.00000;75.00000;      -0.71482;1.00982;3
113.90200; 46.75000; 6.92856;102.00787; 0.000000e+000;      75.00000;75.00000;       1.95494;1.00820;3
111.57300; 47.00000; 6.89280;102.05574; 0.000000e+000;      75.00000;75.00000;       0.81922;1.00658;3
109.33000; 47.25000; 6.85716;102.00426; 0.000000e+000;      75.00000;75.00000;       0.16649;1.00500;3
107.16600; 47.50000; 6.82412;102.05173; 0.000000e+000;      75.00000;75.00000;       0.73262;1.00344;3
105.05800; 47.75000; 6.79407;102.05044; 0.000000e+000;      75.00000;75.00000;       0.68039;1.00190;3
103.03400; 48.00000; 6.76307;102.04072; 0.000000e+000;      75.00000;75.00000;      -0.16120;1.00040;3
101.07600; 48.25000; 6.73654;102.07622; 0.000000e+000;      75.00000;75.00000;      -1.14835;0.99893;3
 99.16900; 48.50000; 6.70919;102.12193; 0.000000e+000;      75.00000;75.00000;       0.66532;0.99748;3
 97.33700; 48.75000; 6.68489;102.10867; 0.000000e+000;      75.00000;75.00000;       0.94255;0.99606;3
 95.55900; 49.00000; 6.66190;102.12072; 0.000000e+000;      75.00000;75.00000;       0.74467;0.99467;3
 93.81500; 49.25000; 6.64063;102.16884; 0.000000e+000;      75.00000;75.00000;       0.45142;0.99329;3
 92.13300; 49.50000; 6.61721;102.13566; 1.482197e-323;      75.00000;75.00000;      -0.44829;0.99194;3
 90.50100; 49.75000; 6.59944;102.17269;-3.169610e-309;      75.00000;75.00000;       0.56045;0.99062;3
 88.93700; 50.00000; 6.57856;102.26072; 6.467401e-295;      75.00000;75.00000;      -0.18802;0.98934;3
 87.39300; 50.25000; 6.56272;102.17060;-1.318804e-280;      75.00000;75.00000; 8.456803e-002;0.98806;3
 85.89800; 50.50000; 6.54586;102.21815; 2.687637e-266;      75.00000;75.00000;       1.07008;0.98682;3
 84.44600; 50.75000; 6.53051;102.16040;-5.474103e-252;      75.00000;75.00000;      -0.50762;0.98559;3
 83.01400; 51.00000; 6.51633;102.28827; 1.114343e-237;      75.00000;75.00000;      -0.42906;0.98437;3
 81.62200; 51.25000; 6.50056;102.26233;-2.267246e-223;      75.00000;75.00000;      -0.38552;0.98318;3
 80.28900; 51.50000; 6.48650;102.26185; 4.610657e-209;      75.00000;75.00000; 6.316051e-002;0.98203;3
 78.96000; 51.75000; 6.47166;102.27084;-9.371741e-195;      75.00000;75.00000;       1.33974;0.98087;3
 77.67600; 52.00000; 6.45737;102.27888; 1.904057e-180;      75.00000;75.00000;      -0.46907;0.97975;3
 76.42700; 52.25000; 6.44587;102.30996;-3.866784e-166;      75.00000;75.00000;       0.58579;0.97864;3
 75.20200; 52.50000; 6.43238;102.33847; 7.849427e-152;      75.00000;75.00000;      -0.27885;0.97755;3
 74.00600; 52.75000; 6.41967;102.31398;-1.592763e-137;      75.00000;75.00000;       0.65429;0.97648;3
 72.83700; 53.00000; 6.40824;102.36643; 3.230699e-123;      75.00000;75.00000;      -0.16279;0.97542;3
 71.70200; 53.25000; 6.39553;102.38843;-6.550588e-109;      75.00000;75.00000;       0.32148;0.97439;3
 70.58500; 53.50000; 6.38649;102.35518; 1.327726e-094;      75.00000;75.00000;      -0.13205;0.97337;3
 69.49800; 53.75000; 6.37557;102.42490;-2.690216e-080;      75.00000;75.00000;      -0.34534;0.97237;3
 68.42400; 54.00000; 6.36443;102.39550; 5.449057e-066;      75.00000;75.00000;      -0.55024;0.97138;3
 67.37600; 54.25000; 6.35251;102.40434;-1.103358e-051;      75.00000;75.00000;      -0.21219;0.97040;3
 66.36800; 54.50000; 6.34209;102.39004; 2.233454e-037;      75.00000;75.00000;       1.08326;0.96946;3
 65.35900; 54.75000; 6.33074;102.44120;-4.519682e-023;      75.00000;75.00000;       0.73761;0.96851;3
 64.38852; 55.00000; 6.32243;102.51110;      -4.21950;      79.21950;75.00000;       2.09113;0.96759;3
 63.43855; 55.25000; 6.30351;102.47072;      75.00000; 1.165810e-009;75.00000;       0.88579;0.96669;4
 62.49597; 55.50000; 6.23442;102.53069;      75.00000;-2.117757e-020;75.00000;       0.49197;0.96579;4
 61.58604; 55.75000; 6.22476;102.57676;      75.00000; 1.681029e-031;75.00000;       0.45813;0.96492;4
 60.71247; 56.00000; 6.23911;102.65063;      75.00000; 3.371652e-042;75.00000;      -0.20934;0.96408;4
 59.81606; 56.25000; 6.24902;102.62736;      75.00000;-1.481023e-052;75.00000;      -0.31785;0.96321;4
 58.97642; 56.50000; 6.25321;102.66180;      75.00000; 2.690358e-063;75.00000;       0.19113;0.96240;4
 58.14569; 56.75000; 6.25401;102.60007;      75.00000;-2.135548e-074;75.00000;      -0.60995;0.96159;4
 57.31930; 57.00000; 6.25302;102.65878;      75.00000;-4.283282e-085;75.00000;      -0.72579;0.96078;4
 56.53198; 57.25000; 6.24627;102.61552;      75.00000; 1.881463e-095;75.00000;      -0.27314;0.96000;4
 55.75035; 57.50000; 6.23992;102.61913;      75.00000;-3.417779e-106;75.00000;       0.12819;0.95923;4
 54.98713; 57.75000; 6.23306;102.67540;      75.00000; 2.712959e-117;75.00000;      -0.37626;0.95847;4
 54.24775; 58.00000; 6.22761;102.64670;      75.00000; 5.441400e-128;75.00000;       0.69449;0.95774;4
 53.53337; 58.25000; 6.22030;102.66556;      75.00000;-2.390174e-138;75.00000;      -0.11150;0.95703;4
 52.81953; 58.50000; 6.21167;102.69918;      75.00000; 4.341881e-149;75.00000;      -0.29282;0.95631;4
 52.12353; 58.75000; 6.20430;102.68973;      75.00000;-3.446491e-160;75.00000;       0.11846;0.95561;4
 51.43253; 59.00000; 6.19867;102.62546;      75.00000;-6.912650e-171;75.00000;      -0.37380;0.95492;4
 50.78062; 59.25000; 6.19266;102.74524;      75.00000; 3.036432e-181;75.00000;       0.62341;0.95426;4
 50.13135; 59.50000; 6.18832;102.76888;      75.00000;-5.515842e-192;75.00000;      -0.49385;0.95360;4
 49.50402; 59.75000; 6.18155;102.75940;      75.00000; 4.378356e-203;75.00000;      -0.28720;0.95296;4
 48.87008; 60.00000; 6.17598;102.77241;      75.00000; 8.781698e-214;75.00000;      -0.41239;0.95231;4
 48.27446; 60.25000; 6.16941;102.79491;      75.00000;-3.857425e-224;75.00000;      -1.18270;0.95170;4
 47.85366; 60.50000; 6.16638;102.77685;      75.00000; 7.007220e-235;75.00000;       0.56707;0.95127;4
 48.62897; 60.75000; 6.16454;102.77651;      75.00000;-5.562180e-246;75.00000;       0.66698;0.95207;4
 50.42429; 61.00000; 6.15423;102.77035;      75.00000;-1.115610e-256;75.00000;      -0.22478;0.95390;4
 52.85688; 61.25000; 6.14806;102.83557;      75.00000; 4.900398e-267;75.00000;      -0.57580;0.95635;4
 55.53196; 61.50000; 6.14932;102.83449;      75.00000;-8.901838e-278;75.00000;      -0.68687;0.95901;4
 58.27705; 61.75000; 6.15966;102.79716;      75.00000; 7.066086e-289;75.00000;       0.64162;0.96171;4
 60.86647; 62.00000; 6.18162;102.76382;      75.00000; 1.417250e-299;75.00000;      -0.34899;0.96423;4
 63.24800; 62.25000; 6.21239;102.86315;      75.00000;-6.225372e-310;75.00000;      -0.16251;0.96651;4
 65.42072; 62.50000; 6.24771;102.87379;      75.00000; 1.130916e-320;75.00000;      -0.15924;0.96857;4
 67.34435; 62.75000; 6.28624;102.81032;      75.00000; 0.000000e+000;75.00000;       0.40594;0.97037;4
 69.06270; 63.00000; 6.32416;102.90115;      75.00000; 0.000000e+000;75.00000;-1.422131e-002;0.97197;4
 70.63522; 63.25000; 6.35907;102.76182;      75.00000; 0.000000e+000;75.00000;      -0.16442;0.97342;4
 72.07404; 63.50000; 6.38993;102.82225;      75.00000; 0.000000e+000;75.00000;       0.90501;0.97473;4
 73.40615; 63.75000; 6.42005;102.76302;      75.00000; 0.000000e+000;75.00000;       0.36892;0.97594;4
 74.69139; 64.00000; 6.44450;102.86061;      75.00000; 0.000000e+000;75.00000;       0.57348;0.97709;4
 75.92574; 64.25000; 6.46642;102.82792;      75.00000; 0.000000e+000;75.00000;       0.60835;0.97820;4
 77.13239; 64.50000; 6.48866;102.85955;      75.00000; 0.000000e+000;75.00000;       0.85840;0.97927;4
 78.35862; 64.75000; 6.50715;102.87748;      75.00000; 0.000000e+000;75.00000;      -0.33075;0.98035;4
 79.56175; 65.00000; 6.52370;102.88569;      75.00000; 0.000000e+000;75.00000;      -0.79449;0.98140;4
 80.77565; 65.25000; 6.53896;102.81731;      75.00000; 0.000000e+000;75.00000;      -0.59185;0.98245;4
 81.99771; 65.50000; 6.55461;102.90420;      75.00000; 0.000000e+000;75.00000;      -0.64208;0.98350;4
 83.21384; 65.75000; 6.57008;102.87338;      75.00000; 0.000000e+000;75.00000;      -0.69886;0.98455;4
 84.46575; 66.00000; 6.58365;102.93304;      75.00000; 0.000000e+000;75.00000; 9.002694e-002;0.98561;4
 85.68655; 66.25000; 6.59670;102.89797;      75.00000; 0.000000e+000;75.00000;-8.865590e-003;0.98664;4
 86.95737; 66.50000; 6.60944;102.95475;      75.00000; 0.000000e+000;75.00000;      -0.21402;0.98770;4
 88.19915; 66.75000; 6.62157;102.96542;      75.00000; 0.000000e+000;75.00000;       0.10180;0.98873;4
 89.45321; 67.00000; 6.63516;102.95769;      75.00000; 0.000000e+000;75.00000;       0.42285;0.98976;4
 90.72529; 67.25000; 6.64696;102.85465;      75.00000; 0.000000e+000;75.00000;      -0.46565;0.99080;4
 91.97709; 67.50000; 6.66044;102.90960;      75.00000; 0.000000e+000;75.00000;      -0.61450;0.99182;4
 93.25169; 67.75000; 6.67137;102.97405;      75.00000; 0.000000e+000;75.00000;       0.31437;0.99284;4
 94.48660; 68.00000; 6.68363;102.91887;      75.00000; 0.000000e+000;75.00000;       0.42889;0.99382;4
 95.75792; 68.25000; 6.69349;102.93929;      75.00000; 0.000000e+000;75.00000; 3.293903e-002;0.99483;4
 97.01899; 68.50000; 6.70601;102.96942;      75.00000; 0.000000e+000;75.00000;-1.604375e-002;0.99581;4
 98.26164; 68.75000; 6.71672;102.95291;      75.00000; 0.000000e+000;75.00000;      -0.58937;0.99678;4
 99.52814; 69.00000; 6.72825;102.97298;      75.00000; 0.000000e+000;75.00000;      -0.23211;0.99775;4
100.77211; 69.25000; 6.73936;103.04185;      75.00000; 0.000000e+000;75.00000;      -0.45077;0.99870;4
102.00965; 69.50000; 6.75096;102.97419;      75.00000; 0.000000e+000;75.00000;       0.21501;0.99964;4
103.28356; 69.75000; 6.76107;102.99041;      75.00000; 0.000000e+000;75.00000;      -0.12975;1.00059;4
104.52200; 70.00000; 6.76995;103.04490;      75.00000; 0.000000e+000;75.00000;      -0.80073;1.00151;4
105.78471; 70.25000; 6.77933;103.00411;      75.00000; 0.000000e+000;75.00000;      -0.15730;1.00244;4
107.03647; 70.50000; 6.78913;103.03105;      75.00000; 0.000000e+000;75.00000;      -0.16009;1.00335;4
108.29275; 70.75000; 6.79979;103.03018;      75.00000; 0.000000e+000;75.00000;      -0.20738;1.00426;4
109.53069; 71.00000; 6.81054;103.05025;      75.00000; 0.000000e+000;75.00000;       0.30302;1.00514;4
110.77980; 71.25000; 6.81865;103.06010;      75.00000; 0.000000e+000;75.00000;      -0.16675;1.00602;4
112.03286; 71.50000; 6.82711;103.07145;      75.00000; 0.000000e+000;75.00000;       0.46136;1.00690;4
113.27732; 71.75000; 6.84022;103.05935;      75.00000; 0.000000e+000;75.00000;       0.33776;1.00776;4
114.53198; 72.00000; 6.85322;103.05594;      75.00000; 0.000000e+000;75.00000;      -0.17361;1.00863;4
115.78602; 72.25000; 6.86787;103.05350;      75.00000; 0.000000e+000;75.00000;      -0.78749;1.00948;4
117.01231; 72.50000; 6.88256;103.08220;      75.00000; 0.000000e+000;75.00000;       0.14926;1.01030;4
118.29088; 72.75000; 6.89581;103.08997;      75.00000; 0.000000e+000;75.00000; 6.812220e-002;1.01115;4
119.53264; 73.00000; 6.90550;103.10000;      75.00000; 0.000000e+000;75.00000; 2.426406e-002;1.01197;4
120.78145; 73.25000; 6.91465;103.08207;      75.00000; 0.000000e+000;75.00000; 6.991754e-002;1.01278;4
122.03837; 73.50000; 6.92682;103.16109;      75.00000; 0.000000e+000;75.00000;       0.99321;1.01359;4
123.27928; 73.75000; 6.93390;103.18396;      75.00000; 0.000000e+000;75.00000;       0.49211;1.01439;4
124.53644; 74.00000; 6.94275;103.24170;      75.00000; 0.000000e+000;75.00000; 2.289367e-002;1.01518;4
125.78302; 74.25000; 6.95099;103.13371;      75.00000; 0.000000e+000;75.00000; 1.343830e-002;1.01595;4
127.04878; 74.50000; 6.95986;103.17398;      75.00000; 0.000000e+000;75.00000;      -0.35448;1.01673;4
128.28904; 74.75000; 6.96760;103.22788;      75.00000; 0.000000e+000;75.00000;       1.25940;1.01749;4
129.55013; 75.00000; 6.97777;103.23147;      75.00000; 0.000000e+000;75.00000;       0.29649;1.01824;4
130.81770; 75.25000; 6.98620;103.11551;      75.00000; 0.000000e+000;75.00000;      -0.91642;1.01900;4
132.06966; 75.50000; 6.99756;103.16250;      75.00000; 0.000000e+000;75.00000;       0.12178;1.01973;4
133.32566; 75.75000; 7.00696;103.21055;      75.00000; 0.000000e+000;75.00000;      -0.50018;1.02046;4
134.57148; 76.00000; 7.01811;103.13488;      75.00000; 0.000000e+000;75.00000;      -0.30674;1.02117;4
135.81502; 76.25000; 7.02611;103.23070;      75.00000; 0.000000e+000;75.00000;       0.26683;1.02187;4
137.06192; 76.50000; 7.03896;103.23772;      75.00000; 0.000000e+000;75.00000;       0.59324;1.02257;4
138.32084; 76.75000; 7.05110;103.21445;      75.00000; 0.000000e+000;75.00000;      -0.30898;1.02326;4
139.56896; 77.00000; 7.06448;103.20468;      75.00000; 0.000000e+000;75.00000;       0.27828;1.02394;4
140.83804; 77.25000; 7.07679;103.19431;      75.00000; 0.000000e+000;75.00000;       0.50693;1.02462;4
142.10691; 77.50000; 7.08754;103.24709;      75.00000; 0.000000e+000;75.00000;      -1.14167;1.02528;4
143.33621; 77.75000; 7.10158;103.22519;      75.00000; 0.000000e+000;75.00000;      -0.81167;1.02592;4
144.60648; 78.00000; 7.11093;103.26411;      75.00000; 0.000000e+000;75.00000;      -0.71450;1.02658;4
145.84826; 78.25000; 7.12312;103.24015;      75.00000; 0.000000e+000;75.00000; 1.595926e-002;1.02720;4
147.10049; 78.50000; 7.13329;103.21585;      75.00000; 0.000000e+000;75.00000;      -0.22452;1.02783;4
148.35810; 78.75000; 7.14360;103.33716;      75.00000; 0.000000e+000;75.00000;-1.845668e-002;1.02844;4
149.60013; 79.00000; 7.15313;103.26874;      75.00000; 0.000000e+000;75.00000;       0.20021;1.02904;4
150.85416; 79.25000; 7.16132;103.34218;      75.00000; 0.000000e+000;75.00000;      -0.36953;1.02964;4
152.09581; 79.50000; 7.16901;103.31812;      75.00000; 0.000000e+000;75.00000;       0.35197;1.03022;4
153.34993; 79.75000; 7.17589;103.26611;      75.00000; 0.000000e+000;75.00000;       0.14675;1.03080;4
154.62100; 80.00000; 7.18525;103.25771;      75.00000; 0.000000e+000;75.00000; 1.123973e-002;1.03137;4
155.84437; 80.25000; 7.19289;103.30412;      75.00000; 0.000000e+000;75.00000;       0.57909;1.03192;4
157.11250; 80.50000; 7.20087;103.30442;      75.00000; 0.000000e+000;75.00000;      -0.65894;1.03247;4
158.35187; 80.75000; 7.20816;103.35994;      75.00000; 0.000000e+000;75.00000;       0.27340;1.03301;4
159.59764; 81.00000; 7.21668;103.31374;      75.00000; 0.000000e+000;75.00000;       0.22985;1.03353;4
160.84931; 81.25000; 7.22426;103.35594;      75.00000; 0.000000e+000;75.00000;       0.59317;1.03405;4
162.09223; 81.50000; 7.23166;103.32160;      75.00000; 0.000000e+000;75.00000;      -0.30770;1.03456;4
163.35195; 81.75000; 7.23879;103.27309;      75.00000; 0.000000e+000;75.00000; 1.127747e-002;1.03506;4
164.60817; 82.00000; 7.24573;103.42292;      75.00000; 0.000000e+000;75.00000; 4.257617e-002;1.03555;4
165.84879; 82.25000; 7.25225;103.39568;      75.00000; 0.000000e+000;75.00000;      -0.38839;1.03603;4
167.11538; 82.50000; 7.25800;103.33676;      75.00000; 0.000000e+000;75.00000; 4.380619e-002;1.03651;4
168.35717; 82.75000; 7.26451;103.41041;      75.00000; 0.000000e+000;75.00000;      -0.14043;1.03697;4
169.59773; 83.00000; 7.27079;103.35946;      75.00000; 0.000000e+000;75.00000;      -0.23439;1.03741;4
170.86395; 83.25000; 7.27707;103.40489;      75.00000; 0.000000e+000;75.00000;       0.42798;1.03786;4
172.10850; 83.50000; 7.28270;103.36901;      75.00000; 0.000000e+000;75.00000;      -0.71654;1.03829;4
173.36407; 83.75000; 7.28934;103.40099;      75.00000; 0.000000e+000;75.00000;       0.46850;1.03872;4
174.60800; 84.00000; 7.29678;103.43210;      75.00000; 0.000000e+000;75.00000;       1.12167;1.03913;4
175.87488; 84.25000; 7.30234;103.39121;      75.00000; 0.000000e+000;75.00000;      -0.13626;1.03954;4
177.12637; 84.50000; 7.30812;103.38870;      75.00000; 0.000000e+000;75.00000;       0.76178;1.03993;4
178.37905; 84.75000; 7.31344;103.44298;      75.00000; 0.000000e+000;75.00000;      -0.66313;1.04032;4
179.64138; 85.00000; 7.31977;103.40360;      75.00000; 0.000000e+000;75.00000;       0.21492;1.04069;4
180.86242; 85.25000; 7.32578;103.48805;      75.00000; 0.000000e+000;75.00000;       0.76700;1.04105;4
182.12320; 85.50000; 7.33218;103.32216;      75.00000; 0.000000e+000;75.00000;       0.57169;1.04141;4
183.37436; 85.75000; 7.33877;103.40725;      75.00000; 0.000000e+000;75.00000;      -0.73616;1.04175;4
184.64529; 86.00000; 7.34440;103.41947;      75.00000; 0.000000e+000;75.00000;       0.46865;1.04210;4
185.87956; 86.25000; 7.35016;103.43582;      75.00000; 0.000000e+000;75.00000;       0.79938;1.04242;4
187.13557; 86.50000; 7.35331;103.46275;      75.00000; 0.000000e+000;75.00000;       0.44642;1.04273;4
188.37543; 86.75000; 7.35996;103.44759;      75.00000; 0.000000e+000;75.00000;      -0.43260;1.04304;4
189.63000; 87.00000; 7.36357;103.43450;      75.00000; 0.000000e+000;75.00000;       0.54072;1.04334;4
190.89450; 87.25000; 7.36847;103.39601;      75.00000; 0.000000e+000;75.00000;       0.14316;1.04363;4
192.13929; 87.50000; 7.37395;103.44517;      75.00000; 0.000000e+000;75.00000;       0.69555;1.04390;4
193.38501; 87.75000; 7.37737;103.49180;      75.00000; 0.000000e+000;75.00000;      -0.16524;1.04417;4
194.62469; 88.00000; 7.38133;103.48282;      75.00000; 0.000000e+000;75.00000;       0.46132;1.04442;4
195.88927; 88.25000; 7.38489;103.50357;      75.00000; 0.000000e+000;75.00000;      -0.33812;1.04467;4
197.13618; 88.50000; 7.38843;103.46269;      75.00000; 0.000000e+000;75.00000;      -0.24235;1.04491;4
198.40266; 88.75000; 7.39182;103.42187;      75.00000; 0.000000e+000;75.00000;      -0.29264;1.04514;4
199.63686; 89.00000; 7.39395;103.48262;      75.00000; 0.000000e+000;75.00000;-3.428513e-002;1.04535;4
200.88925; 89.25000; 7.39663;103.47751;      75.00000; 0.000000e+000;75.00000;      -0.98083;1.04556;4
202.14464; 89.50000; 7.39812;103.50273;      75.00000; 0.000000e+000;75.00000;       0.23767;1.04576;4
203.40054; 89.75000; 7.39996;103.53494;      75.00000; 0.000000e+000;75.00000;      -0.33466;1.04595;4
204.65138; 90.00000; 7.40180;103.51030;      75.00000; 0.000000e+000;75.00000;      -0.33942;1.04613;4
205.88366; 90.25000; 7.40485;103.43097;      75.00000; 0.000000e+000;75.00000;       0.74851;1.04629;4
207.13943; 90.50000; 7.40970;103.43440;      75.00000; 0.000000e+000;75.00000;       0.99787;1.04645;4
208.37872; 90.75000; 7.41725;103.46156;      75.00000; 0.000000e+000;75.00000;       1.44606;1.04660;4
209.63325; 91.00000; 7.42711;103.44510;      75.00000; 0.000000e+000;75.00000;       0.46127;1.04674;4
210.89162; 91.25000; 7.43568;103.54169;      75.00000; 0.000000e+000;75.00000;       0.79404;1.04687;4
212.14167; 91.50000; 7.44435;103.44249;      75.00000; 0.000000e+000;75.00000;       0.11118;1.04699;4
213.38717; 91.75000; 7.45323;103.44446;      75.00000; 0.000000e+000;75.00000;       0.25262;1.04710;4
214.65222; 92.00000; 7.46425;103.51912;      75.00000; 0.000000e+000;75.00000;       0.50812;1.04720;4
215.90107; 92.25000; 7.47222;103.49765;      75.00000; 0.000000e+000;75.00000;      -0.51502;1.04729;4
217.12764; 92.50000; 7.48292;103.51859;      75.00000; 0.000000e+000;75.00000;      -0.30969;1.04737;4
218.38442; 92.75000; 7.49137;103.50711;      75.00000; 0.000000e+000;75.00000;       0.53343;1.04744;4
219.63333; 93.00000; 7.50518;103.49600;      75.00000; 0.000000e+000;75.00000;      -1.03290;1.04749;4
220.88389; 93.25000; 7.52019;103.49765;      75.00000; 0.000000e+000;75.00000;       0.41016;1.04754;4
222.13251; 93.50000; 7.53521;103.49554;      75.00000; 0.000000e+000;75.00000;-7.656641e-002;1.04758;4
223.37717; 93.75000; 7.54813;103.53814;      75.00000; 0.000000e+000;75.00000;      -1.10362;1.04761;4
224.63269; 94.00000; 7.56268;103.49446;      75.00000; 0.000000e+000;75.00000;       0.60789;1.04763;4
225.88581; 94.25000; 7.57622;103.47608;      75.00000; 0.000000e+000;75.00000;      -0.89373;1.04764;4
227.13675; 94.50000; 7.58745;103.54175;      75.00000; 0.000000e+000;75.00000;      -0.57094;1.04764;4
228.39786; 94.75000; 7.59331;103.54736;      75.00000; 0.000000e+000;75.00000;       0.59275;1.04763;4
229.63848; 95.00000; 7.59099;103.48956;      75.00000; 0.000000e+000;75.00000; 4.924501e-002;1.04761;4
230.87644; 95.25000; 7.60171;103.51129;      75.00000; 0.000000e+000;75.00000;       1.11213;1.04758;4
232.14234; 95.50000; 7.61063;103.51597;      75.00000; 0.000000e+000;75.00000;       0.20508;1.04754;4
233.37136; 95.75000; 7.62115;103.45740;      75.00000; 0.000000e+000;75.00000;-8.495252e-002;1.04749;4
234.64503; 96.00000; 7.62961;103.51413;      75.00000; 0.000000e+000;75.00000;      -0.18843;1.04743;4
235.87856; 96.25000; 7.64064;103.49295;      75.00000; 0.000000e+000;75.00000;-9.779716e-002;1.04736;4
237.13631; 96.50000; 7.64759;103.54127;      75.00000; 0.000000e+000;75.00000;       1.62138;1.04728;4
238.38245; 96.75000; 7.65729;103.55430;      75.00000; 0.000000e+000;75.00000;      -0.43937;1.04720;4
239.64328; 97.00000; 7.66666;103.52896;      75.00000; 0.000000e+000;75.00000;-9.120757e-002;1.04710;4
240.88964; 97.25000; 7.67511;103.54715;      75.00000; 0.000000e+000;75.00000;       0.73903;1.04699;4
242.14317; 97.50000; 7.68457;103.51563;      75.00000; 0.000000e+000;75.00000;       0.64784;1.04687;4
243.39527; 97.75000; 7.69237;103.56111;      75.00000; 0.000000e+000;75.00000;      -0.47662;1.04674;4
244.64224; 98.00000; 7.70083;103.56872;      75.00000; 0.000000e+000;75.00000;       0.32553;1.04660;4
245.90012; 98.25000; 7.70886;103.50929;      75.00000; 0.000000e+000;75.00000;-4.131060e-003;1.04645;4
247.13843; 98.50000; 7.71832;103.55500;      75.00000; 0.000000e+000;75.00000;      -0.60937;1.04629;4
248.39538; 98.75000; 7.72637;103.56713;      75.00000; 0.000000e+000;75.00000;       0.24561;1.04612;4
249.65201; 99.00000; 7.73534;103.59729;      75.00000; 0.000000e+000;75.00000;       0.53374;1.04594;4
250.91330; 99.25000; 7.74331;103.47885;      75.00000; 0.000000e+000;75.00000;      -0.81000;1.04575;4
252.14736; 99.50000; 7.75046;103.64157;      75.00000; 0.000000e+000;75.00000;       0.26373;1.04555;4
253.39672; 99.75000; 7.75929;103.63448;      75.00000; 0.000000e+000;75.00000;      -0.29448;1.04535;4
254.65516;100.00000; 7.76771;103.70918;      75.00000; 0.000000e+000;75.00000;       0.50303;1.04513;4
255.90049;100.25000; 7.77480;103.67838;      75.00000; 0.000000e+000;75.00000;      -0.15111;1.04490;4
257.16506;100.50000; 7.78399;103.67834;      75.00000; 0.000000e+000;75.00000;       0.52919;1.04466;4
258.41021;100.75000; 7.79448;103.64348;      75.00000; 0.000000e+000;75.00000;       0.98154;1.04441;4
259.66024;101.00000; 7.80417;103.67192;      75.00000; 0.000000e+000;75.00000; 8.761198e-002;1.04415;4
260.90736;101.25000; 7.81130;103.65217;      75.00000; 0.000000e+000;75.00000;       0.15913;1.04388;4
262.13918;101.50000; 7.82182;103.69288;      75.00000; 0.000000e+000;75.00000;-1.820986e-002;1.04361;4
263.40930;101.75000; 7.82943;103.69217;      75.00000; 0.000000e+000;75.00000;       0.85582;1.04332;4
264.65838;102.00000; 7.84069;103.68173;      75.00000; 0.000000e+000;75.00000;      -0.27626;1.04302;4
265.90963;102.25000; 7.84974;103.66285;      75.00000; 0.000000e+000;75.00000;       0.30705;1.04271;4
267.15681;102.50000; 7.85664;103.66816;      75.00000; 0.000000e+000;75.00000;      -0.87355;1.04240;4
268.39719;102.75000; 7.86545;103.71112;      75.00000; 0.000000e+000;75.00000;       1.34945;1.04207;4
269.65591;103.00000; 7.87355;103.74248;      75.00000; 0.000000e+000;75.00000;       0.29072;1.04174;4
270.90365;103.25000; 7.88187;103.62253;      75.00000; 0.000000e+000;75.00000;      -0.20702;1.04139;4
272.14610;103.50000; 7.89156;103.72758;      75.00000; 0.000000e+000;75.00000;       0.17560;1.04104;4
273.40212;103.75000; 7.90007;103.64040;      75.00000; 0.000000e+000;75.00000;      -0.67980;1.04067;4
274.64338;104.00000; 7.90998;103.71562;      75.00000; 0.000000e+000;75.00000;       0.10298;1.04029;4
275.90188;104.25000; 7.91849;103.69973;      75.00000; 0.000000e+000;75.00000;      -0.59697;1.03991;4
277.16052;104.50000; 7.92855;103.67774;      75.00000; 0.000000e+000;75.00000;      -1.59716;1.03951;4
278.42006;104.75000; 7.93694;103.66188;      75.00000; 0.000000e+000;75.00000; 7.126630e-002;1.03910;4
279.64895;105.00000; 7.94786;103.65069;      75.00000; 0.000000e+000;75.00000;       0.40656;1.03869;4
280.89795;105.25000; 7.95640;103.72349;      75.00000; 0.000000e+000;75.00000;       0.49502;1.03827;4
282.15115;105.50000; 7.96548;103.68457;      75.00000; 0.000000e+000;75.00000;      -0.45568;1.03783;4
283.41877;105.75000; 7.97436;103.73755;      75.00000; 0.000000e+000;75.00000;      -0.88849;1.03738;4
284.66969;106.00000; 7.98582;103.71971;      75.00000; 0.000000e+000;75.00000;      -0.90447;1.03693;4
285.91206;106.25000; 7.99529;103.66469;      75.00000; 0.000000e+000;75.00000;       0.38940;1.03647;4
287.15226;106.50000; 8.00253;103.70940;      75.00000; 0.000000e+000;75.00000; 8.590116e-002;1.03600;4
288.41776;106.75000; 8.01187;103.73498;      75.00000; 0.000000e+000;75.00000;       1.63563;1.03551;4
289.66132;107.00000; 8.02296;103.72109;      75.00000; 0.000000e+000;75.00000;       0.14274;1.03502;4
290.90197;107.25000; 8.02871;103.72954;      75.00000; 0.000000e+000;75.00000;       0.71935;1.03452;4
292.13988;107.50000; 8.03584;103.74523;      75.00000; 0.000000e+000;75.00000;      -1.06216;1.03402;4
293.40716;107.75000; 8.04373;103.72130;      75.00000; 0.000000e+000;75.00000;      -0.65359;1.03349;4
294.65563;108.00000; 8.04876;103.77461;      75.00000; 0.000000e+000;75.00000;       0.65970;1.03296;4
295.90607;108.25000; 8.05598;103.68493;      75.00000; 0.000000e+000;75.00000;      -0.29021;1.03242;4
297.16051;108.50000; 8.05908;103.75457;      75.00000; 0.000000e+000;75.00000;      -0.58564;1.03187;4
298.39606;108.75000; 8.05266;103.72133;      75.00000; 0.000000e+000;75.00000;      -0.35278;1.03131;4
299.66350;109.00000; 8.05741;103.76351;      75.00000; 0.000000e+000;75.00000;-4.727493e-002;1.03074;4
300.91425;109.25000; 8.06385;103.79418;      75.00000; 0.000000e+000;75.00000;       0.32427;1.03016;4
302.15112;109.50000; 8.06777;103.79311;      75.00000; 0.000000e+000;75.00000;      -0.17008;1.02958;4
303.39324;109.75000; 8.07055;103.67142;      75.00000; 0.000000e+000;75.00000;       0.10561;1.02898;4
304.66746;110.00000; 8.07485;103.72167;      75.00000; 0.000000e+000;75.00000;      -0.85233;1.02837;4
305.91134;110.25000; 8.07834;103.74514;      75.00000; 0.000000e+000;75.00000;       0.32766;1.02775;4
307.16413;110.50000; 8.08086;103.73986;      75.00000; 0.000000e+000;75.00000;       0.76915;1.02713;4
308.41561;110.75000; 8.08349;103.71394;      75.00000; 0.000000e+000;75.00000;       0.92023;1.02649;4
309.66132;111.00000; 8.08510;103.76420;      75.00000; 0.000000e+000;75.00000;       0.41164;1.02585;4
310.92130;111.25000; 8.08407;103.71604;      75.00000; 0.000000e+000;75.00000;      -0.42287;1.02519;4
312.15389;111.50000; 8.08623;103.75408;      75.00000; 0.000000e+000;75.00000;      -0.35323;1.02454;4
313.41352;111.75000; 8.08594;103.72598;      75.00000; 0.000000e+000;75.00000;      -0.11506;1.02386;4
314.65709;112.00000; 8.08500;103.75119;      75.00000; 0.000000e+000;75.00000;      -0.18272;1.02318;4
315.91278;112.25000; 8.08635;103.71352;      75.00000; 0.000000e+000;75.00000;       0.27660;1.02249;4
317.16601;112.50000; 8.08649;103.73713;      75.00000; 0.000000e+000;75.00000;      -0.94873;1.02178;4
318.41150;112.75000; 8.08827;103.71725;      75.00000; 0.000000e+000;75.00000;-2.393856e-002;1.02108;4
319.65620;113.00000; 8.08694;103.68462;      75.00000; 0.000000e+000;75.00000;       0.69315;1.02036;4
320.90779;113.25000; 8.08593;103.63714;      75.00000; 0.000000e+000;75.00000;       0.12267;1.01963;4
322.15244;113.50000; 8.08263;103.65219;      75.00000; 0.000000e+000;75.00000;      -0.15243;1.01890;4
323.41243;113.75000; 8.07896;103.72465;      75.00000; 0.000000e+000;75.00000;       0.46414;1.01815;4
324.67045;114.00000; 8.07577;103.67168;      75.00000; 0.000000e+000;75.00000;      -0.47030;1.01739;4
325.90966;114.25000; 8.07072;103.70319;      75.00000; 0.000000e+000;75.00000;      -0.85117;1.01663;4
327.16961;114.50000; 8.06373;103.66914;      75.00000; 0.000000e+000;75.00000;       0.27695;1.01585;4
328.42429;114.75000; 8.05747;103.65415;      75.00000; 0.000000e+000;75.00000;       0.48332;1.01506;4
329.68076;115.00000; 8.05310;103.57576;      75.00000; 0.000000e+000;75.00000;-8.072673e-002;1.01427;4
330.93885;115.25000; 8.04655;103.63031;      75.00000; 0.000000e+000;75.00000;       0.25797;1.01346;4
332.16509;115.50000; 8.04071;103.75855;      75.00000; 0.000000e+000;75.00000;       1.27116;1.01266;4
333.43633;115.75000; 8.03153;103.78025;      75.00000; 0.000000e+000;75.00000;      -1.48662;1.01183;4
334.66826;116.00000; 8.02200;103.73614;      75.00000; 0.000000e+000;75.00000;      -0.13118;1.01101;4
335.95000;116.25000; 8.01213;103.69633;      75.00000; 0.000000e+000;75.00000;      -0.41573;1.01016;4
337.17994;116.50000; 8.00099;103.74049;      75.00000; 0.000000e+000;75.00000;       0.21944;1.00932;4
338.45820;116.75000; 7.98918;103.67901;      75.00000; 0.000000e+000;75.00000;      -0.61043;1.00845;4
339.70008;117.00000; 7.97897;103.58364;      75.00000; 0.000000e+000;75.00000;      -0.18213;1.00759;4
340.96321;117.25000; 7.96428;103.68642;      75.00000; 0.000000e+000;75.00000;      -0.84844;1.00671;4
342.20690;117.50000; 7.94826;103.54865;      75.00000; 0.000000e+000;75.00000;       0.57099;1.00583;4
343.45408;117.75000; 7.92743;103.57979;      75.00000; 0.000000e+000;75.00000;      -0.86452;1.00494;4
344.69429;118.00000; 7.90450;103.49727;      75.00000; 0.000000e+000;75.00000;       0.25906;1.00405;4
345.93873;118.25000; 7.87844;103.50320;      75.00000; 0.000000e+000;75.00000;      -0.44679;1.00315;4
347.18241;118.50000; 7.85300;103.36245;      75.00000; 0.000000e+000;75.00000;      -0.31346;1.00223;4
348.44014;118.75000; 7.81968;103.34824;      75.00000; 0.000000e+000;75.00000;-8.109608e-002;1.00130;4
349.68038;119.00000; 7.78843;103.33336;      75.00000; 0.000000e+000;75.00000;-1.884563e-002;1.00037;4
350.93230;119.25000; 7.75130;103.23749;      75.00000; 0.000000e+000;75.00000;       0.40164;0.99943;4
352.17501;119.50000; 7.71294;103.18951;      75.00000; 0.000000e+000;75.00000;       0.13525;0.99848;4
353.43867;119.75000; 7.67356;103.17643;      75.00000; 0.000000e+000;75.00000;       0.56502;0.99751;4
354.68785;120.00000; 7.63247;103.01721;      75.00000; 0.000000e+000;75.00000;       0.41131;0.99654;4
355.93423;120.25000; 7.58934;103.00145;      75.00000; 0.000000e+000;75.00000;      -0.45847;0.99557;4
357.17647;120.50000; 7.54315;102.92043;      75.00000; 0.000000e+000;75.00000;       0.49100;0.99459;4
358.43228;120.75000; 7.49537;102.80537;      75.00000; 0.000000e+000;75.00000; 7.218742e-002;0.99359;4
359.68504;121.00000; 7.44504;102.69423;      75.00000; 0.000000e+000;75.00000;      -1.27664;0.99258;4
360.93203;121.25000; 7.39704;102.63088;      75.00000; 0.000000e+000;75.00000;      -0.35265;0.99158;4
362.18191;121.50000; 7.34836;102.56957;      75.00000; 0.000000e+000;75.00000;      -0.17838;0.99056;4
363.42370;121.75000; 7.29859;102.49981;      75.00000; 0.000000e+000;75.00000;      -1.28254;0.98953;4
364.68008;122.00000; 7.24685;102.40014;      75.00000; 0.000000e+000;75.00000;      -0.74379;0.98849;4
365.93447;122.25000; 7.19322;102.21624;      75.00000; 0.000000e+000;75.00000;      -0.75931;0.98744;4
367.18583;122.50000; 7.14220;102.15461;      75.00000; 0.000000e+000;75.00000; 1.985262e-002;0.98639;4
368.43528;122.75000; 7.08797;102.05401;      75.00000; 0.000000e+000;75.00000;       0.20217;0.98533;4
369.69335;123.00000; 7.03635;101.93913;      75.00000; 0.000000e+000;75.00000;      -1.12170;0.98425;4
370.93594;123.25000; 6.98594;101.80666;      75.00000; 0.000000e+000;75.00000;      -0.54279;0.98318;4
372.17796;123.50000; 6.93589;101.68947;      75.00000; 0.000000e+000;75.00000;       0.94252;0.98210;4
373.44145;123.75000; 6.88819;101.53969;      75.00000; 0.000000e+000;75.00000;      -1.17694;0.98099;4
374.69615;124.00000; 6.84597;101.40965;      75.00000; 0.000000e+000;75.00000;-6.854779e-002;0.97988;4
375.94012;124.25000; 6.80201;101.22256;      75.00000; 0.000000e+000;75.00000;      -0.53396;0.97878;4
377.20912;124.50000; 6.76395;101.16267;      75.00000; 0.000000e+000;75.00000;      -1.03160;0.97764;4
378.44453;124.75000; 6.72878;100.95299;      75.00000; 0.000000e+000;75.00000;      -0.97409;0.97653;4
379.68754;125.00000; 6.69675;100.72748;      75.00000; 0.000000e+000;75.00000;      -0.22458;0.97540;4
380.93126;125.25000; 6.66954;100.57430;      75.00000; 0.000000e+000;75.00000;-2.439576e-002;0.97426;4
382.18345;125.50000; 6.64586;100.51337;      75.00000; 0.000000e+000;75.00000;      -0.77928;0.97310;4
383.42835;125.75000; 6.62665;100.33071;      75.00000; 0.000000e+000;75.00000;      -1.30890;0.97195;4
384.67352;126.00000; 6.61554;100.24686;      75.00000; 0.000000e+000;75.00000;      -0.61935;0.97079;4
385.91792;126.25000; 6.60830;100.02910;      75.00000; 0.000000e+000;75.00000;      -0.22262;0.96962;4
387.17694;126.50000; 6.60795; 99.80736;      75.00000; 0.000000e+000;75.00000;      -0.54701;0.96843;4
388.42931;126.75000; 6.60986; 99.76252;      75.00000; 0.000000e+000;75.00000;      -1.06838;0.96723;4
389.68237;127.00000; 6.62321; 99.48250;      75.00000; 0.000000e+000;75.00000;      -0.30006;0.96603;4
390.94697;127.25000; 6.64201; 99.38947;      75.00000; 0.000000e+000;75.00000;      -0.68191;0.96481;4
392.17408;127.50000; 6.66724; 99.15248;      75.00000; 0.000000e+000;75.00000;      -1.48579;0.96362;4
393.42171;127.75000; 6.69941; 99.03445;      75.00000; 0.000000e+000;75.00000;      -1.42731;0.96240;4
394.67422;128.00000; 6.73338; 98.82748;      75.00000; 0.000000e+000;75.00000;      -1.55820;0.96117;4
395.91522;128.25000; 6.78166; 98.65146;      75.00000; 0.000000e+000;75.00000;      -1.28196;0.95994;4
397.15922;128.50000; 6.83848; 98.51764;      75.00000; 0.000000e+000;75.00000;      -0.32461;0.95870;4
398.41437;128.75000; 6.90016; 98.34178;      75.00000; 0.000000e+000;75.00000;      -0.71907;0.95744;4
399.66649;129.00000; 6.96095; 98.14594;      75.00000; 0.000000e+000;75.00000; 1.100221e-002;0.95618;4
400.92324;129.25000; 7.03285; 97.99462;      75.00000; 0.000000e+000;75.00000;      -0.22790;0.95490;4
402.17856;129.50000; 7.11263; 97.82828;      75.00000; 0.000000e+000;75.00000;      -0.15783;0.95362;4
403.43043;129.75000; 7.20068; 97.66204;      75.00000; 0.000000e+000;75.00000;      -0.32033;0.95234;4
404.67520;130.00000; 7.29807; 97.49160;      75.00000; 0.000000e+000;75.00000;       0.80614;0.95105;4
405.91932;130.25000; 7.39564; 97.42046;      75.00000; 0.000000e+000;75.00000;       0.28717;0.94976;4
407.16774;130.50000; 7.49570; 97.19098;      75.00000; 0.000000e+000;75.00000;      -1.51693;0.94846;4
408.42742;130.75000; 7.59973; 97.07168;      75.00000; 0.000000e+000;75.00000;      -0.51622;0.94714;4
409.66873;131.00000; 7.70295; 97.00860;      75.00000; 0.000000e+000;75.00000;      -0.19775;0.94583;4
410.92753;131.25000; 7.81172; 96.82217;      75.00000; 0.000000e+000;75.00000;      -1.54007;0.94449;4
412.17444;131.50000; 7.91947; 96.76069;      75.00000; 0.000000e+000;75.00000; 3.468665e-002;0.94316;4
413.40867;131.75000; 8.02871; 96.65614;      75.00000; 0.000000e+000;75.00000;      -0.58401;0.94184;4
414.64685;132.00000; 8.13936; 96.62614;      75.00000; 0.000000e+000;75.00000;      -0.97719;0.94050;4
415.91178;132.25000; 8.24808; 96.44857;      75.00000; 0.000000e+000;75.00000;      -1.70169;0.93913;4
417.15713;132.50000; 8.36041; 96.31249;      75.00000; 0.000000e+000;75.00000; 1.406753e-002;0.93777;4
418.39888;132.75000; 8.47693; 96.38740;      75.00000; 0.000000e+000;75.00000;      -0.63710;0.93641;4
419.67045;133.00000; 8.58952; 96.15146;      75.00000; 0.000000e+000;75.00000;       0.20593;0.93501;4
420.91592;133.25000; 8.70205; 96.10809;      75.00000; 0.000000e+000;75.00000;      -0.20781;0.93364;4
422.18217;133.50000; 8.81286; 96.07323;      75.00000; 0.000000e+000;75.00000;-5.883541e-002;0.93223;4
423.43466;133.75000; 8.92583; 96.00776;      75.00000; 0.000000e+000;75.00000;      -0.81363;0.93083;4
424.68849;134.00000; 9.03365; 95.90190;      75.00000; 0.000000e+000;75.00000;       0.26794;0.92942;4
425.93382;134.25000; 9.14221; 95.90823;      75.00000; 0.000000e+000;75.00000;       0.46488;0.92801;4
427.17833;134.50000; 9.24602; 95.75524;      75.00000; 0.000000e+000;75.00000;      -0.82315;0.92660;4
428.43175;134.75000; 9.34386; 95.75881;      75.00000; 0.000000e+000;75.00000;      -0.26134;0.92517;4
429.67660;135.00000; 9.43545; 95.78256;      75.00000; 0.000000e+000;75.00000;       0.33569;0.92375;4
430.93050;135.25000; 9.52551; 95.76057;      75.00000; 0.000000e+000;75.00000;      -0.24048;0.92231;4
432.16994;135.50000; 9.61678; 95.68991;      75.00000; 0.000000e+000;75.00000;      -0.79101;0.92088;4
433.43483;135.75000; 9.70162; 95.65512;      75.00000; 0.000000e+000;75.00000;       0.26752;0.91941;4
434.68990;136.00000; 9.78918; 95.62192;      75.00000; 0.000000e+000;75.00000;-7.899171e-002;0.91794;4
435.94922;136.25000; 9.87336; 95.60804;      75.00000; 0.000000e+000;75.00000;       0.78535;0.91647;4
437.20065;136.50000; 9.95329; 95.61179;      75.00000; 0.000000e+000;75.00000; 7.031177e-002;0.91500;4
438.46515;136.75000;10.02424; 95.64338;      75.00000; 0.000000e+000;75.00000;       0.79966;0.91350;4
439.71598;137.00000;10.09456; 95.59883;      75.00000; 0.000000e+000;75.00000;-4.434843e-002;0.91202;4
440.95274;137.25000;10.15956; 95.59712;      75.00000; 0.000000e+000;75.00000;       0.33839;0.91054;4
442.19647;137.50000;10.22200; 95.61917;      75.00000; 0.000000e+000;75.00000; 3.210146e-002;0.90906;4
443.43964;137.75000;10.27960; 95.57792;      75.00000; 0.000000e+000;75.00000;      -0.57316;0.90756;4
444.69572;138.00000;10.33909; 95.59075;      75.00000; 0.000000e+000;75.00000;      -0.38580;0.90605;4
445.93309;138.25000;10.39423; 95.56493;      75.00000; 0.000000e+000;75.00000;       0.18712;0.90455;4
447.19167;138.50000;10.44351; 95.50033;      75.00000; 0.000000e+000;75.00000;       0.78262;0.90301;4
448.44048;138.75000;10.49256; 95.54259;      75.00000; 0.000000e+000;75.00000;      -0.54208;0.90149;4
449.69294;139.00000;10.53620; 95.51423;      75.00000; 0.000000e+000;75.00000;       0.73134;0.89995;4
450.94350;139.25000;10.58295; 95.45378;      75.00000; 0.000000e+000;75.00000;      -0.63381;0.89841;4
452.17593;139.50000;10.62414; 95.49242;      75.00000; 0.000000e+000;75.00000;      -0.18178;0.89689;4
453.42943;139.75000;10.66234; 95.52364;      75.00000; 0.000000e+000;75.00000;      -0.44749;0.89533;4
454.67024;140.00000;10.70069; 95.51495;      75.00000; 0.000000e+000;75.00000;       0.95711;0.89379;4
455.92320;140.25000;10.73485; 95.40803;      75.00000; 0.000000e+000;75.00000;       0.13042;0.89222;4
457.18068;140.50000;10.76939; 95.52228;      75.00000; 0.000000e+000;75.00000;      -0.30411;0.89064;4
458.43242;140.75000;10.80802; 95.49833;      75.00000; 0.000000e+000;75.00000;       0.24294;0.88907;4
459.68216;141.00000;10.84181; 95.54366;      75.00000; 0.000000e+000;75.00000;       1.12373;0.88749;4
460.94102;141.25000;10.87350; 95.52039;      75.00000; 0.000000e+000;75.00000;       1.75463;0.88589;4
462.17068;141.50000;10.90622; 95.45129;      75.00000; 0.000000e+000;75.00000;       0.22965;0.88432;4
463.43355;141.75000;10.93874; 95.54690;      75.00000; 0.000000e+000;75.00000;       0.85293;0.88271;4
464.68609;142.00000;10.96783; 95.51713;      75.00000; 0.000000e+000;75.00000;      -0.33871;0.88110;4
465.93668;142.25000;10.99397; 95.45236;      75.00000; 0.000000e+000;75.00000;       0.80805;0.87949;4
467.17635;142.50000;11.02176; 95.43981;      75.00000; 0.000000e+000;75.00000;      -0.72082;0.87789;4
468.42623;142.75000;11.04737; 95.56012;      75.00000; 0.000000e+000;75.00000;       0.76738;0.87627;4
469.68347;143.00000;11.07739; 95.59833;      75.00000; 0.000000e+000;75.00000;      -0.58546;0.87464;4
470.92528;143.25000;11.11424; 95.58537;      75.00000; 0.000000e+000;75.00000;       1.01416;0.87302;4
472.16250;143.50000;11.14326; 95.57805;      75.00000; 0.000000e+000;75.00000; 6.971809e-002;0.87140;4
473.42338;143.75000;11.17473; 95.58638;      75.00000; 0.000000e+000;75.00000;       0.90104;0.86974;4
474.68690;144.00000;11.20818; 95.53615;      75.00000; 0.000000e+000;75.00000;       0.66355;0.86808;4
475.93074;144.25000;11.23803; 95.59818;      75.00000; 0.000000e+000;75.00000;-4.971953e-002;0.86643;4
477.19282;144.50000;11.27013; 95.56165;      75.00000; 0.000000e+000;75.00000;       0.58403;0.86476;4
478.43765;144.75000;11.30729; 95.57158;      75.00000; 0.000000e+000;75.00000;      -0.44094;0.86310;4
479.69191;145.00000;11.33689; 95.52330;      75.00000; 0.000000e+000;75.00000;       0.99371;0.86143;4
480.93709;145.25000;11.36537; 95.54776;      75.00000; 0.000000e+000;75.00000;      -0.70920;0.85976;4
482.17951;145.50000;11.39484; 95.53365;      75.00000; 0.000000e+000;75.00000;       0.32734;0.85810;4
483.44278;145.75000;11.42474; 95.62842;      75.00000; 0.000000e+000;75.00000;       0.86944;0.85639;4
484.70055;146.00000;11.46110; 95.55983;      75.00000; 0.000000e+000;75.00000;       0.40039;0.85470;4
485.94055;146.25000;11.49776; 95.61521;      75.00000; 0.000000e+000;75.00000;      -0.26783;0.85302;4
487.17877;146.50000;11.53513; 95.55454;      75.00000; 0.000000e+000;75.00000;       0.39669;0.85134;4
488.43588;146.75000;11.57114; 95.60497;      75.00000; 0.000000e+000;75.00000; 5.115987e-002;0.84962;4
489.68670;147.00000;11.60745; 95.63080;      75.00000; 0.000000e+000;75.00000; 7.084441e-002;0.84792;4
490.94898;147.25000;11.64968; 95.57499;      75.00000; 0.000000e+000;75.00000;      -0.55950;0.84619;4
492.19925;147.50000;11.68432; 95.63931;      75.00000; 0.000000e+000;75.00000;      -0.26462;0.84447;4
493.43757;147.75000;11.72345; 95.59224;      75.00000; 0.000000e+000;75.00000;      -0.50709;0.84276;4
494.69857;148.00000;11.76628; 95.63379;      75.00000; 0.000000e+000;75.00000;       0.53689;0.84102;4
495.94763;148.25000;11.80613; 95.63279;      75.00000; 0.000000e+000;75.00000;       0.92722;0.83929;4
497.19147;148.50000;11.84396; 95.65067;      75.00000; 0.000000e+000;75.00000;       0.23741;0.83757;4
498.45863;148.75000;11.88107; 95.70479;      75.00000; 0.000000e+000;75.00000;      -0.23612;0.83580;4
499.70578;149.00000;11.92257; 95.69371;      75.00000; 0.000000e+000;75.00000;      -0.25312;0.83406;4
500.94983;149.25000;11.96500; 95.63024;      75.00000; 0.000000e+000;75.00000;       0.53850;0.83232;4
502.19009;149.50000;12.00405; 95.65394;      75.00000; 0.000000e+000;75.00000;       0.46947;0.83058;4
503.44941;149.75000;12.04646; 95.64448;      75.00000; 0.000000e+000;75.00000;       0.69449;0.82881;4
504.69760;150.00000;12.08569; 95.68791;      75.00000; 0.000000e+000;75.00000;       0.33932;0.82705;4
505.94912;150.25000;12.12655; 95.65786;      75.00000; 0.000000e+000;75.00000;       1.04789;0.82528;4
507.20031;150.50000;12.16918; 95.64371;      75.00000; 0.000000e+000;75.00000;       0.62280;0.82351;4
508.44488;150.75000;12.20982; 95.62326;      75.00000; 0.000000e+000;75.00000;       0.42929;0.82174;4
509.67701;151.00000;12.25196; 95.68598;      75.00000; 0.000000e+000;75.00000;      -0.51924;0.81999;4
510.93452;151.25000;12.28952; 95.67646;      75.00000; 0.000000e+000;75.00000;      -0.47501;0.81820;4
512.19767;151.50000;12.33403; 95.65655;      75.00000; 0.000000e+000;75.00000;       0.10602;0.81639;4
513.43642;151.75000;12.37295; 95.69675;      75.00000; 0.000000e+000;75.00000;       0.12256;0.81462;4
514.69754;152.00000;12.41189; 95.67535;      75.00000; 0.000000e+000;75.00000;       0.37247;0.81281;4
515.94284;152.25000;12.45318; 95.70576;      75.00000; 0.000000e+000;75.00000;      -0.43040;0.81102;4
517.19416;152.50000;12.49520; 95.66342;      75.00000; 0.000000e+000;75.00000;       0.16006;0.80921;4
518.44179;152.75000;12.53647; 95.67535;      75.00000; 0.000000e+000;75.00000;       0.87024;0.80741;4
519.69935;153.00000;12.57930; 95.69603;      75.00000; 0.000000e+000;75.00000;       1.15629;0.80559;4
520.95021;153.25000;12.61677; 95.81671;      75.00000; 0.000000e+000;75.00000;      -0.35970;0.80377;4
522.19380;153.50000;12.66040; 95.79669;      75.00000; 0.000000e+000;75.00000;      -0.11878;0.80196;4
523.43886;153.75000;12.70413; 95.87868;      75.00000; 0.000000e+000;75.00000;      -1.13385;0.80015;4
524.69024;154.00000;12.74508; 95.90494;      75.00000; 0.000000e+000;75.00000;      -1.43812;0.79832;4
525.95541;154.25000;12.78985; 95.86431;      75.00000; 0.000000e+000;75.00000;       0.79398;0.79647;4
527.19800;154.50000;12.83397; 95.80171;      75.00000; 0.000000e+000;75.00000;       0.34807;0.79465;4
528.44282;154.75000;12.87543; 95.77638;      75.00000; 0.000000e+000;75.00000;       0.79701;0.79282;4
529.69781;155.00000;12.91976; 95.77169;      75.00000; 0.000000e+000;75.00000; 7.052663e-002;0.79098;4
530.94901;155.25000;12.96719; 95.79298;      75.00000; 0.000000e+000;75.00000;      -0.21371;0.78913;4
532.18356;155.50000;13.01415; 95.76453;      75.00000; 0.000000e+000;75.00000;      -0.56190;0.78731;4
533.45259;155.75000;13.05919; 95.76592;      75.00000; 0.000000e+000;75.00000;       0.79651;0.78543;4
534.70671;156.00000;13.10433; 95.80797;      75.00000; 0.000000e+000;75.00000;       0.56769;0.78357;4
535.95440;156.25000;13.15224; 95.81525;      75.00000; 0.000000e+000;75.00000;      -0.24298;0.78172;4
537.22363;156.50000;13.19633; 95.86557;      75.00000; 0.000000e+000;75.00000;       0.33129;0.77983;4
538.45462;156.75000;13.24923; 95.82724;      75.00000; 0.000000e+000;75.00000;      -0.15550;0.77800;4
539.70390;157.00000;13.28958; 95.85801;      75.00000; 0.000000e+000;75.00000;      -0.61234;0.77614;4
540.96298;157.25000;13.33935; 95.86337;      75.00000; 0.000000e+000;75.00000;      -0.28211;0.77425;4
542.19876;157.50000;13.38805; 95.83714;      75.00000; 0.000000e+000;75.00000;      -0.13518;0.77240;4
543.46045;157.75000;13.43388; 95.89035;      75.00000; 0.000000e+000;75.00000;      -0.48010;0.77051;4
544.71383;158.00000;13.48142; 95.83289;      75.00000; 0.000000e+000;75.00000; 2.883993e-002;0.76863;4
545.96341;158.25000;13.53149; 95.83599;      75.00000; 0.000000e+000;75.00000;      -0.36532;0.76675;4
547.20692;158.50000;13.58162; 95.89313;      75.00000; 0.000000e+000;75.00000;      -0.53607;0.76488;4
548.46554;158.75000;13.63327; 95.87289;      75.00000; 0.000000e+000;75.00000;      -0.18089;0.76298;4
549.72865;159.00000;13.68247; 95.90755;      75.00000; 0.000000e+000;75.00000;      -0.11960;0.76107;4
550.95343;159.25000;13.73145; 95.93748;      75.00000; 0.000000e+000;75.00000;-6.617343e-002;0.75922;4
552.21017;159.50000;13.78141; 95.88100;      75.00000; 0.000000e+000;75.00000;-7.366739e-003;0.75731;4
553.46832;159.75000;13.82881; 95.92201;      75.00000; 0.000000e+000;75.00000;      -0.43882;0.75541;4
554.72845;160.00000;13.88081; 95.88766;      75.00000; 0.000000e+000;75.00000;       0.27130;0.75349;4
555.96790;160.25000;13.93252; 95.87914;      75.00000; 0.000000e+000;75.00000;       0.58876;0.75160;4
557.22109;160.50000;13.98276; 95.89274;      75.00000; 0.000000e+000;75.00000;      -0.49780;0.74970;4
558.47045;160.75000;14.03696; 95.86338;      75.00000; 0.000000e+000;75.00000;       0.56109;0.74779;4
559.71099;161.00000;14.09034; 95.90489;      75.00000; 0.000000e+000;75.00000;       1.00461;0.74590;4
560.95911;161.25000;14.14571; 95.87046;      75.00000; 0.000000e+000;75.00000;       0.47513;0.74399;4
562.21240;161.50000;14.20143; 95.88812;      75.00000; 0.000000e+000;75.00000;-4.607529e-002;0.74207;4
563.45618;161.75000;14.25425; 95.91379;      75.00000; 0.000000e+000;75.00000;       0.42437;0.74016;4
564.71470;162.00000;14.31166; 95.90032;      75.00000; 0.000000e+000;75.00000;      -0.75787;0.73823;4
565.96478;162.25000;14.36704; 95.85626;      75.00000; 0.000000e+000;75.00000;       0.11645;0.73631;4
567.22250;162.50000;14.42072; 95.92536;      75.00000; 0.000000e+000;75.00000;       1.18764;0.73437;4
568.47518;162.75000;14.47843; 95.92560;      75.00000; 0.000000e+000;75.00000;      -0.20082;0.73244;4
569.72171;163.00000;14.53960; 95.89734;      75.00000; 0.000000e+000;75.00000;       0.47435;0.73052;4
570.98735;163.25000;14.59488; 95.89837;      75.00000; 0.000000e+000;75.00000;      -0.51011;0.72857;4
572.23632;163.50000;14.65812; 95.85830;      75.00000; 0.000000e+000;75.00000;-1.423293e-003;0.72664;4
573.48634;163.75000;14.71408; 95.88172;      75.00000; 0.000000e+000;75.00000;      -0.59895;0.72471;4
574.71491;164.00000;14.77419; 95.90230;      75.00000; 0.000000e+000;75.00000;      -0.20640;0.72281;4
575.97007;164.25000;14.82955; 95.91256;      75.00000; 0.000000e+000;75.00000;       0.24115;0.72086;4
577.22415;164.50000;14.88930; 95.89493;      75.00000; 0.000000e+000;75.00000;       0.30186;0.71892;4
578.46666;164.75000;14.94677; 95.88253;      75.00000; 0.000000e+000;75.00000;      -0.25414;0.71699;4
579.73449;165.00000;15.01142; 95.88256;      75.00000; 0.000000e+000;75.00000;       0.37398;0.71502;4
580.97527;165.25000;15.07284; 95.94786;      75.00000; 0.000000e+000;75.00000;      -0.30647;0.71309;4
582.22878;165.50000;15.12829; 95.91837;      75.00000; 0.000000e+000;75.00000;-4.244174e-002;0.71114;4
583.47613;165.75000;15.19264; 95.84678;      75.00000; 0.000000e+000;75.00000;       0.65871;0.70919;4
584.72268;166.00000;15.25626; 95.84994;      75.00000; 0.000000e+000;75.00000;      -0.19311;0.70725;4
585.98257;166.25000;15.31664; 95.83974;      75.00000; 0.000000e+000;75.00000;       0.57624;0.70528;4
587.23921;166.50000;15.37625; 95.81408;      75.00000; 0.000000e+000;75.00000;      -0.20024;0.70332;4
588.49565;166.75000;15.44392; 95.85868;      75.00000; 0.000000e+000;75.00000;      -0.42506;0.70136;4
589.73422;167.00000;15.50681; 95.89136;      75.00000; 0.000000e+000;75.00000;       0.43778;0.69942;4
590.98535;167.25000;15.56901; 95.80655;      75.00000; 0.000000e+000;75.00000;       0.53347;0.69746;4
592.23704;167.50000;15.63457; 95.77969;      75.00000; 0.000000e+000;75.00000;      -0.11430;0.69550;4
593.48297;167.75000;15.69782; 95.89285;      75.00000; 0.000000e+000;75.00000;       0.63645;0.69355;4
594.73933;168.00000;15.76021; 95.83758;      75.00000; 0.000000e+000;75.00000;       0.41555;0.69158;4
595.98034;168.25000;15.82314; 95.86060;      75.00000; 0.000000e+000;75.00000;      -0.18360;0.68963;4
597.24605;168.50000;15.88343; 95.90084;      75.00000; 0.000000e+000;75.00000;       0.42771;0.68764;4
598.49132;168.75000;15.94622; 95.86095;      75.00000; 0.000000e+000;75.00000;      -0.52232;0.68569;4
599.73616;169.00000;16.01345; 95.86164;      75.00000; 0.000000e+000;75.00000;      -0.78384;0.68373;4
600.98621;169.25000;16.07333; 95.82715;      75.00000; 0.000000e+000;75.00000;      -0.12192;0.68176;4
602.24493;169.50000;16.14382; 95.89541;      75.00000; 0.000000e+000;75.00000;      -1.17224;0.67978;4
603.49057;169.75000;16.21122; 95.88553;      75.00000; 0.000000e+000;75.00000;      -0.16594;0.67782;4
604.74422;170.00000;16.27280; 95.85142;      75.00000; 0.000000e+000;75.00000;       0.12003;0.67585;4
605.99959;170.25000;16.34151; 95.78229;      75.00000; 0.000000e+000;75.00000;       0.52318;0.67387;4
607.23641;170.50000;16.41358; 95.73586;      75.00000; 0.000000e+000;75.00000;      -1.21177;0.67192;4
608.48559;170.75000;16.47170; 95.85443;      75.00000; 0.000000e+000;75.00000;      -0.74137;0.66995;4
609.74603;171.00000;16.53743; 95.87803;      75.00000; 0.000000e+000;75.00000;      -0.42795;0.66796;4
610.99473;171.25000;16.60878; 95.91503;      75.00000; 0.000000e+000;75.00000; 3.596545e-002;0.66599;4
612.23716;171.50000;16.66843; 95.89324;      75.00000; 0.000000e+000;75.00000;       1.34403;0.66403;4
613.50031;171.75000;16.73923; 95.89810;      75.00000; 0.000000e+000;75.00000;       0.19098;0.66203;4
614.75385;172.00000;16.81142; 95.85359;      75.00000; 0.000000e+000;75.00000;      -0.96075;0.66005;4
615.99563;172.25000;16.87869; 95.85719;      75.00000; 0.000000e+000;75.00000;      -0.80435;0.65809;4
617.25126;172.50000;16.94929; 95.89607;      75.00000; 0.000000e+000;75.00000;      -0.24924;0.65611;4
618.50015;172.75000;17.01828; 95.82946;      75.00000; 0.000000e+000;75.00000;       1.03738;0.65413;4
619.75053;173.00000;17.08478; 95.86153;      75.00000; 0.000000e+000;75.00000;       0.26200;0.65215;4
620.99620;173.25000;17.16093; 95.87730;      75.00000; 0.000000e+000;75.00000;       0.63926;0.65018;4
622.23358;173.50000;17.23073; 95.89089;      75.00000; 0.000000e+000;75.00000;-7.148392e-002;0.64823;4
623.48217;173.75000;17.30151; 95.79341;      75.00000; 0.000000e+000;75.00000;       0.82468;0.64625;4
624.73684;174.00000;17.37483; 95.82072;      75.00000; 0.000000e+000;75.00000;-1.919954e-002;0.64426;4
625.98646;174.25000;17.44608; 95.86426;      75.00000; 0.000000e+000;75.00000;       0.54915;0.64229;4
627.24444;174.50000;17.52331; 95.88302;      75.00000; 0.000000e+000;75.00000;       0.53652;0.64029;4
628.49133;174.75000;17.59684; 95.88906;      75.00000; 0.000000e+000;75.00000;      -0.35632;0.63832;4
629.73461;175.00000;17.67974; 95.87780;      75.00000; 0.000000e+000;75.00000;       0.74795;0.63635;4
630.99177;175.25000;17.75283; 95.92622;      75.00000; 0.000000e+000;75.00000;      -0.68981;0.63436;4
632.23876;175.50000;17.82056; 95.91135;      75.00000; 0.000000e+000;75.00000;       0.10760;0.63239;4
633.49857;175.75000;17.90440; 95.97674;      75.00000; 0.000000e+000;75.00000;       0.34614;0.63039;4
634.75083;176.00000;17.98274; 95.90490;      75.00000; 0.000000e+000;75.00000;       0.22587;0.62841;4
635.99501;176.25000;18.05715; 95.90147;      75.00000; 0.000000e+000;75.00000;      -0.20604;0.62644;4
637.23189;176.50000;18.14453; 95.91034;      75.00000; 0.000000e+000;75.00000;       0.47587;0.62448;4
638.48093;176.75000;18.22314; 95.87818;      75.00000; 0.000000e+000;75.00000;       0.28408;0.62250;4
639.72763;177.00000;18.30084; 95.87798;      75.00000; 0.000000e+000;75.00000;       0.43297;0.62053;4
640.96851;177.25000;18.37720; 95.96248;      75.00000; 0.000000e+000;75.00000;      -0.23344;0.61856;4
642.23308;177.50000;18.46190; 95.90082;      75.00000; 0.000000e+000;75.00000;       0.62250;0.61656;4
643.47254;177.75000;18.54008; 95.98582;      75.00000; 0.000000e+000;75.00000;       0.46436;0.61460;4
644.74488;178.00000;18.62426; 95.93201;      75.00000; 0.000000e+000;75.00000;       0.25580;0.61259;4
645.98887;178.25000;18.71260; 95.96409;      75.00000; 0.000000e+000;75.00000;      -0.28378;0.61062;4
647.24224;178.50000;18.78952; 95.95330;      75.00000; 0.000000e+000;75.00000;       0.39997;0.60863;4
648.48897;178.75000;18.87858; 95.91396;      75.00000; 0.000000e+000;75.00000;       0.37295;0.60666;4
649.74347;179.00000;18.96156; 95.97379;      75.00000; 0.000000e+000;75.00000;      -0.69019;0.60468;4
650.99172;179.25000;19.04955; 96.02176;      75.00000; 0.000000e+000;75.00000;-8.668316e-002;0.60271;4
652.23132;179.50000;19.12915; 96.01771;      75.00000; 0.000000e+000;75.00000;      -0.76607;0.60075;4
653.49349;179.75000;19.21500; 96.01229;      75.00000; 0.000000e+000;75.00000;       0.32728;0.59875;4
654.73588;180.00000;19.30511; 96.00019;      75.00000; 0.000000e+000;75.00000;       0.55065;0.59679;4
655.98154;180.25000;19.38746; 95.99714;      75.00000; 0.000000e+000;75.00000;       0.56422;0.59482;4
657.23435;180.50000;19.47430; 96.00452;      75.00000; 0.000000e+000;75.00000;      -0.24829;0.59285;4
658.48283;180.75000;19.56244; 95.99633;      75.00000; 0.000000e+000;75.00000; 8.726504e-002;0.59088;4
659.73304;181.00000;19.65047; 96.07458;      75.00000; 0.000000e+000;75.00000;      -0.42463;0.58890;4
660.99076;181.25000;19.73651; 96.12746;      75.00000; 0.000000e+000;75.00000;       0.12993;0.58692;4
662.24052;181.50000;19.82561; 96.08138;      75.00000; 0.000000e+000;75.00000;       0.24051;0.58495;4
663.48757;181.75000;19.91329; 96.10111;      75.00000; 0.000000e+000;75.00000;       0.54701;0.58299;4
664.73722;182.00000;20.00571; 96.06509;      75.00000; 0.000000e+000;75.00000;       1.12440;0.58102;4
665.99024;182.25000;20.09129; 96.11216;      75.00000; 0.000000e+000;75.00000;       0.23552;0.57905;4
667.24606;182.50000;20.18460; 96.09383;      75.00000; 0.000000e+000;75.00000;      -1.74036;0.57707;4
668.49725;182.75000;20.28060; 96.13332;      75.00000; 0.000000e+000;75.00000;       0.22013;0.57510;4
669.75291;183.00000;20.37290; 96.10746;      75.00000; 0.000000e+000;75.00000;       0.37742;0.57313;4
670.99930;183.25000;20.47130; 96.15624;      75.00000; 0.000000e+000;75.00000;      -0.18326;0.57117;4
672.24549;183.50000;20.56488; 96.19419;      75.00000; 0.000000e+000;75.00000;       2.06970;0.56922;4
673.48799;183.75000;20.65606; 96.22367;      75.00000; 0.000000e+000;75.00000;      -0.76718;0.56727;4
674.75295;184.00000;20.75796; 96.18438;      75.00000; 0.000000e+000;75.00000; 6.323652e-003;0.56528;4
675.98346;184.25000;20.85616; 96.09999;      75.00000; 0.000000e+000;75.00000;      -0.73940;0.56335;4
677.24171;184.50000;20.94861; 96.17943;      75.00000; 0.000000e+000;75.00000;      -0.12052;0.56138;4
678.50250;184.75000;21.04488; 96.18247;      75.00000; 0.000000e+000;75.00000;       1.15279;0.55941;4
679.74444;185.00000;21.14594; 96.16742;      75.00000; 0.000000e+000;75.00000;      -0.65743;0.55747;4
681.00073;185.25000;21.24555; 96.22070;      75.00000; 0.000000e+000;75.00000;      -0.32332;0.55550;4
682.25812;185.50000;21.34054; 96.21907;      75.00000; 0.000000e+000;75.00000;       1.52007;0.55354;4
683.50587;185.75000;21.43982; 96.18711;      75.00000; 0.000000e+000;75.00000;       0.76478;0.55159;4
684.74841;186.00000;21.54282; 96.24650;      75.00000; 0.000000e+000;75.00000;       0.16428;0.54966;4
685.99609;186.25000;21.63906; 96.26029;      75.00000; 0.000000e+000;75.00000;       0.53548;0.54771;4
687.24944;186.50000;21.73036; 96.29742;      75.00000; 0.000000e+000;75.00000;       1.09089;0.54576;4
688.51592;186.75000;21.83112; 96.26922;      75.00000; 0.000000e+000;75.00000;      -2.07594;0.54379;4
689.76054;187.00000;21.94451; 96.27422;      75.00000; 0.000000e+000;75.00000;       0.24849;0.54185;4
691.00906;187.25000;22.04237; 96.31047;      75.00000; 0.000000e+000;75.00000;       0.57901;0.53991;4
692.26643;187.50000;22.14433; 96.32331;      75.00000; 0.000000e+000;75.00000;-2.901646e-002;0.53796;4
693.50939;187.75000;22.25179; 96.39972;      75.00000; 0.000000e+000;75.00000;      -0.28984;0.53603;4
694.75577;188.00000;22.34833; 96.32047;      75.00000; 0.000000e+000;75.00000;       0.19856;0.53410;4
696.02284;188.25000;22.45414; 96.31172;      75.00000; 0.000000e+000;75.00000;       0.38595;0.53214;4
697.27094;188.50000;22.56634; 96.36390;      75.00000; 0.000000e+000;75.00000;       0.65187;0.53021;4
698.50880;188.75000;22.67549; 96.39921;      75.00000; 0.000000e+000;75.00000;       0.12099;0.52830;4
699.75432;189.00000;22.77151; 96.38676;      75.00000; 0.000000e+000;75.00000;       1.56588;0.52637;4

